0.6639614571163693,0.13435704921486985,0.008482310458759974,0.26274715743256594,0.6411733750565359,0.8428040003229316,0.8567668156152034,0.7674007221626955,0.679958542013156,0.6436338719928296,0.6528276819206917,0.6804048937171493,0.7039997470982048,0.7169983127577696,0.7199384080695972,0.7203721618559131,0.724922948002449,0.7318460735481248,0.7392859790402507,0.7473745424755314,0.754989027203186,0.7633667017288657,0.7719042808065526,0.7780756658910865,0.7839834492660891,0.7895745647431778,0.7980292919016551,0.8085012318466247,0.8180550771172096,0.8253337041514424,0.8294400601754597,0.8313208779821488,0.834370562524874,0.8370159737484205,0.8348696401588898,0.8287635138344829,0.8185532985229161,0.8029334503631618,0.7826328947853859,0.7609741958902035,0.7481418378711093,0.7499178337874897,0.7621356958601467,0.7815556499406747,0.8072015316019525,0.8340333991599177,0.8556966332118956,0.8732075579635392,0.886088374661719,0.8968350330101182,0.9049983137580944,0.9117836981746363,0.9183929255526918,0.9245046178125153,0.9306721350886574,0.9348227299306038,0.9374429774287998,0.939823562109307,0.9432541845688264,0.9476306656224316,0.9512525383894326,0.9530452826060026,0.9548098071539722,0.9593883896437393,0.9666008636345182,0.9741611651827768,0.9796186341590314,0.9829874099419842,0.9882409475723253,0.9959488194681412,1.004276822738893,1.0132189730430474,1.0184512445790128,1.0183129744799078,1.0183778435328426,1.024527432115119,1.0369380385849487,1.0506852230330148,1.0577018498415836,1.0584099864688143,1.0587712840966774,1.0609095588409203,1.066208864444201,1.0747615811956313,1.082696104313281,1.0887286048869582,1.0939820597422623,1.0972981820548258,1.0990701738928677,1.1038385639459918,1.115259395118477,1.1291706516573259,1.1369474080467252,1.136005462942549,1.1350381441869635,1.1412502129051902,1.1500135874284345,1.154128082916869,1.1573228885324118,1.1638454250161563,1.1712014549446783,1.1791367958050087,1.1887036220999283,1.2035025125544092,1.221340872253502,1.2372904783446248,1.2528146727532412,1.2698279747573256,1.2804379556935268,1.273024355157362,1.2513373562283219,1.2200034809483988,1.1886777307743472,1.160208230059916,1.1503496848279502,1.1635765063809989,1.190778671809329,1.2290038013754665,1.2759578916641305,1.3681288998412517,1.5332594059635105,1.765568781432468,1
0.6226361451805871,0.10237698690937672,0.020228886776021564,0.31181859945164975,0.7060526644565589,0.9424428678320815,0.9422150685892263,0.8245043644150518,0.7183194541157175,0.6767891736316002,0.6907527734723795,0.722760107881543,0.7434606974503203,0.7577641077265524,0.7702863633071751,0.7756221092432055,0.7838237897807747,0.7991677272405061,0.8097186352281074,0.8132160716696041,0.8205883131279704,0.8210941848272449,0.815486040089717,0.8249601655074751,0.8582467943053648,0.8799454108734547,0.8805110850445175,0.8799714845039233,0.8866952006178983,0.8994562277356215,0.9086398713505742,0.9144283765016709,0.9151764330220179,0.9022352854597944,0.8951679536722559,0.9141023500541282,0.9266374746968756,0.9124762396508874,0.9053810114978492,0.9160556167582713,0.9141011511999388,0.907171266273301,0.9139333211193545,0.9325607185059146,0.955418528701387,0.9652521111593623,0.971784865684757,0.9957443017645893,1.0280378420092535,1.0469106405449768,1.053008917470285,1.0577379202656105,1.0582215929187222,1.0573655773415418,1.0664311622595088,1.078565256530379,1.0838948769345476,1.0780528809131498,1.0731841077249034,1.079514669714679,1.0922804933225398,1.1058427106702011,1.1201070319180038,1.1371487392181998,1.1467786689335784,1.1420388831431554,1.136817822980959,1.1434693856756637,1.1553655948098736,1.1645440893822852,1.1726981257603912,1.187855168532254,1.2164426725970212,1.2463198103705544,1.2632481579597914,1.2617688012616823,1.2611617148972,1.2756022349885552,1.3099218719839705,1.3415074214175142,1.3368607049229764,1.3051732431966365,1.26579201576327,1.2316470369235926,1.2325450359194599,1.2441115076862732,1.2418897232332369,1.2380913830849691,1.2625137651556466,1.3446384050525426,1.4907528875219915,0,0,0,0,0,0,0,0,0,0,0,0,0,0,0,0,0,0,0,0,0,0,0,0,0,0,0,0,0,0,0,1
0.7321768989440389,0.17562926627084732,0.0013552265360070369,0.2574761644334698,0.6882351034420665,0.9571542763077557,0.9833353453433965,0.8624165157204808,0.7513161706495082,0.6932598520863822,0.6984806215898492,0.726230638368764,0.7546116197712596,0.7755562456263436,0.7870451831119739,0.7925269048676665,0.7984254660381833,0.8037899707361553,0.8086577450407526,0.8161213411614421,0.8263282699080967,0.8374256344602413,0.845680329259696,0.855968435699477,0.8675786324744443,0.8772811215943144,0.8831960005696031,0.8893402549889498,0.9007162842792076,0.9086916285381703,0.9063103975933192,0.8988898024800733,0.8908081890311182,0.8852094446421148,0.8794095970818858,0.875502615300525,0.8737511584233101,0.866113082074809,0.8608618543364951,0.859561296394301,0.8629574247706355,0.8735702560150438,0.8852770632228472,0.9064319739258947,0.9359527763495791,0.9669448493320528,0.9880112914061374,1.0033773998138247,1.0169730077211017,1.0270074992547211,1.0275410545136476,1.0212729799530083,1.0216073479695778,1.031517138106704,1.0396168358225188,1.0409267425917048,1.0383162726615756,1.0418954129590472,1.0483007619716025,1.0517294718491854,1.060195009377574,1.0742203116555398,1.0836116721695104,1.08357666250711,1.0828225543303054,1.0844871177063409,1.0923355943043405,1.1111624767541008,1.1356011503814187,1.1449297804426655,1.1349150525479228,1.1186740547892036,1.1220884057941716,1.1428265212270308,1.1644212213025504,1.1812760997148801,1.1866507176062897,1.1837599333301196,1.1852481068967367,1.1907416541038338,1.1950024353070343,1.2026151026159755,1.2162931278500084,1.2299004325065588,1.238578106492478,1.2412367767779255,1.2433287149492762,1.2516599738789267,1.2605164973806464,1.269155081256435,1.2891815641646733,1.3146252574898307,1.3350228460873403,1.3491430000705957,1.3570284901476346,1.353718135194574,1.338941229486831,1.319569751273281,1.3002079753174647,1.283374525373953,1.2813590053349297,1.2923848669351885,1.313948463197296,1.3454717288888758,1.3848619254968928,1.4368154040904746,1.4979497213288409,0,0,0,0,0,0,0,0,0,0,0,0,0,0,0,1
0.6484407737721852,0.09521806084058594,0.01638237481852736,0.31710260178540856,0.722442606229111,0.9456735734576557,0.9443242392426526,0.8235402180101665,0.7046102644429388,0.6706096636170469,0.6761431090985575,0.6929139609689157,0.7219278239323957,0.7553253577686931,0.7697219849195048,0.7673323755873338,0.7666658294455757,0.7743462057917362,0.7884798747408368,0.8092948990079308,0.823742145808378,0.8249115615159287,0.8222498608381077,0.8248372552723633,0.8343512792200456,0.8484849617387755,0.8695256820033465,0.8797483493777508,0.8751889266796258,0.8831236489836255,0.9022064094877656,0.9053635388276394,0.8903076160220075,0.878127127051054,0.8754159307715177,0.8723088354273852,0.855980499606099,0.8359550215858316,0.8202616567658016,0.8239517625542061,0.8499504204502437,0.8740433878078006,0.8858822701430792,0.898154277054187,0.9204157706705446,0.9401617393732962,0.9628537690275156,0.9873535624280433,0.9983602446374982,0.9928918456989976,0.990546773304074,1.0071670037513187,1.028717724211644,1.039327675176949,1.0412545325949547,1.0388720812225367,1.0341626068097154,1.0373631149199543,1.0444125134672009,1.0429771172032423,1.0551385524119954,1.0766635871541774,1.0741823738147869,1.0552318411143302,1.0535582062577598,1.0915814778948694,1.1312036013294384,1.1203907502192973,1.0758935687483722,1.0663750940083092,1.1021310106429936,1.14706595018104,1.1750790452093176,1.1833543572644403,1.1784875710443319,1.1610193737343442,1.1518495933790749,1.164270692570369,1.1790522753254487,1.1859001318486808,1.191526467311286,1.2147783477729348,1.2377234793176444,1.2569351024348967,1.2770552684157523,1.2896796914850064,1.304991432411679,1.3121570195119718,1.303682057044057,1.281076926766668,1.2541955542437628,1.2501646067106076,1.2474211989329353,1.2258247207700432,1.2103973488000523,1.2160189834926893,1.2523315596439408,1.3296014630706245,1.432024635546126,1.5319904383340344,0,0,0,0,0,0,0,0,0,0,0,0,0,0,0,0,0,0,0,0,0,0,1
0.7652400747137004,0.163932467016133,0.00391817425931204,0.25736843253635877,0.6761230149571136,0.9395661107473978,0.9726148665965081,0.8713179777511051,0.7454513949314612,0.666419143886327,0.6663910502179025,0.712214099762954,0.7486592832940894,0.7582400508335372,0.7624106242086591,0.7782256785197483,0.8028917940421433,0.8101080142092794,0.7903554305965175,0.7710365814989284,0.7790766377617082,0.8084459298233362,0.8398544989811407,0.8545854112326549,0.861153091970732,0.8698966256168263,0.866530667336105,0.8509774673300654,0.8579823174371954,0.8950483841159347,0.9317892557950701,0.9272142060238471,0.8991337016302945,0.8771276899005895,0.8684606955064922,0.8595917287392201,0.8569812053912853,0.8699342007340535,0.8754317306397276,0.8587900359002516,0.8547644940859411,0.8789178097958807,0.8877802584116538,0.8731388480173041,0.8743373720827033,0.9013081624942275,0.9384614190251203,0.963847449317992,0.985138107575487,1.001452368538716,1.0022642608370602,1.0037745289406328,1.0247288245149122,1.0459884972912805,1.0465625160474565,1.0310873269228604,1.0260203300140636,1.0299493509063438,1.0347263805932367,1.0442270324795238,1.0558219429886044,1.055458766311423,1.0441898509468344,1.0455005437455367,1.0651526139204064,1.086680154979622,1.087684562459603,1.0872366684201973,1.0916259077605819,1.1021413211830187,1.118264496376497,1.1347432671032178,1.1513314910476218,1.1556518968920366,1.145344909961079,1.1346603733578564,1.1469814782376584,1.1666851000731024,1.1862393630234978,1.2096502143145735,1.2195062480242291,1.190521072136455,1.1684928645802284,1.1714716786124872,1.1963741673664798,1.2363217494073155,1.262445992631673,1.2685149558498305,1.2747013282868418,1.2741679790143656,1.2581964010996398,1.2462916702037075,1.256045775803052,1.2834215330580045,1.3096387689975564,1.312019670903187,1.3023788563864322,1.2975766643068198,1.304635599787607,1.322718607808771,1.339961258367963,1.3571715754436835,1.3773060612963544,1.397661120139943,0,0,0,0,0,0,0,0,0,0,0,0,0,0,0,0,0,0,1
0.7001065437459281,0.14797069164863316,0.021002746377972555,0.295616590056434,0.7009914111003143,0.9233421044894949,0.931629678556158,0.8292413339409296,0.7391622527543905,0.6888052898793725,0.6805255353435726,0.7133412477206901,0.7588415287749374,0.7728183324495377,0.7658034530516115,0.7617698249325945,0.7707605783399213,0.7888229819723396,0.8034354031776921,0.8110836137851255,0.8193906673507505,0.8289114994786471,0.8415601830374011,0.8503762570618917,0.8459839459260213,0.8526199513200406,0.8787988339247572,0.8983940985327414,0.8989451912989167,0.8938236931746892,0.8969433507853044,0.9013354311495001,0.8966982197005954,0.8840704060767923,0.8616032159838057,0.8483702410935645,0.8475392201961259,0.8487253026357731,0.8600851612414235,0.8704585164532841,0.8684865158141751,0.8645297360289059,0.8750206480884174,0.8971083941199445,0.9184540927422169,0.9500547159876708,0.9893896091055854,1.0137705961038153,1.0151662602705043,1.0130976876499471,1.0110610331594212,1.0011033060223342,1.006181777409047,1.0232555076436778,1.0318706589381934,1.0365057289048625,1.0513126368218335,1.0564028581299043,1.040588335884098,1.0240044512143007,1.0291384023105727,1.0595767476277438,1.0879124434790615,1.0853907619193606,1.0681112092075247,1.063723088862339,1.086722953191189,1.1119238136652145,1.1317083384766748,1.1444067472923365,1.138228218579428,1.1226565638054815,1.1316518423757242,1.1560363904664945,1.1725590372445764,1.184660425007724,1.200674005548713,1.1942365489236968,1.1615092325302827,1.1513863347774664,1.174517621735498,1.2075951432336327,1.2339700402799694,1.2423389157262752,1.2458900068779653,1.2611239758361648,1.281378391038974,1.2911953937562344,1.2897079557953555,1.2914487075427514,1.293784456543863,1.3095443584536566,1.3308461810119694,1.3331811026499485,1.3088322023326353,1.2730261116818293,1.2416446610683833,1.2178104036854067,1.2137475179899544,1.2513509221078107,1.3447918104114889,1.4548336900002843,1.5482728497194287,0,0,0,0,0,0,0,0,0,0,0,0,0,0,0,0,0,0,0,1
0.754159840613007,0.1701617141764807,0.0,0.24462343984363422,0.6752921596942855,0.951814120077732,0.9546305767909211,0.8390613415684468,0.7439167519415043,0.6933600733618039,0.6804625162277909,0.6841359077771179,0.7095337789400018,0.7406074116702204,0.7448657436374815,0.7386841350631266,0.7541747538874564,0.7546816537336167,0.7468663324758028,0.7839036887805174,0.8353609160272679,0.8398645085134311,0.8165090306486693,0.8178446792605994,0.8448876012887708,0.8701366039448334,0.8588405530966529,0.8193770660383581,0.803706336535003,0.8348719226534601,0.8862358539451762,0.9401965013100949,0.9764242191758166,0.939314277763234,0.8414249515565411,0.7769652581674688,0.7768908088691417,0.8001800636122309,0.8191835426503,0.8413927777010795,0.8460940812078994,0.8258302812957283,0.8071986026404333,0.835038137370496,0.8759928760862615,0.904594400802228,0.9266874288285418,0.9730161061029425,1.012658109260202,1.0101335654313575,0.9821901050742016,0.9628180968780848,0.9778953118538012,1.0092239703360368,1.0549902834527054,1.061491128736897,1.0146397186778813,0.9556641500150751,0.964944184635944,1.0245458725103451,1.0559918839023272,1.0380873871931886,1.0210121676457924,1.0280221525321995,1.0407917398513662,1.049690102985259,1.0546667439010815,1.0568789044023486,1.0648289332658092,1.0866533671871286,1.1051136714008463,1.1061249153459682,1.097084667263298,1.0962136903081778,1.1027140064277443,1.1317956741589092,1.1771622670837052,1.1864417278271335,1.1552324584522142,1.1396462557961113,1.1642187010491936,1.2210410167112369,1.233906608483318,1.180136697830713,1.1223257085219036,1.1046496235314067,1.1561249302307928,1.2530222174774446,1.302540894892629,1.2769753213695543,1.2447178048036516,1.2400903123256433,1.2291146877178067,1.2105595308963448,1.2092157265898758,1.2474679743082104,1.2991717635125675,1.305621441189437,1.2852861010010754,1.2925997529578341,1.3410357454227655,1.4301722158364816,1.4858676078386486,1.4441262027232864,0,0,0,0,0,0,0,0,0,0,0,0,0,0,0,0,0,0,1
0.6621318280798499,0.07979601444469567,0.005982568609887418,0.3240317174142099,0.7362549394123512,0.9698888414112395,0.9678912547523477,0.8494176783473985,0.7440993713353304,0.6892139494390263,0.6873573295923284,0.7163267051014833,0.752683046922133,0.7802966800550556,0.7943693086473345,0.8003424595845968,0.7991182664170773,0.7975066581591332,0.8038310479224243,0.8186792822307286,0.8385773926207551,0.8544829351603513,0.8625537598894943,0.8686115803412239,0.874191804777751,0.8787127051847342,0.8801941201903101,0.8857279113621543,0.900131532911896,0.9142988064732683,0.9205612655108865,0.9151156728466493,0.9012674608965612,0.8886385027027424,0.882610983397712,0.8811967701075603,0.8869196658785246,0.8930337337832515,0.8923581457731662,0.8895400422968045,0.89417128171854,0.8998618438237362,0.8998517239008692,0.9102903617666542,0.9368186168830913,0.9677915813324037,0.9952424729853798,1.0159264349735257,1.0273632232550527,1.0302735865404835,1.032604551649114,1.0362956276343385,1.039168607423516,1.043711584193551,1.0528679133865426,1.0594182762174513,1.0582809617986624,1.0537932494617999,1.0538261272225538,1.058539303354509,1.068044302606594,1.083512235275102,1.1006317393858616,1.116755803038864,1.1250035772805949,1.1213241414157258,1.1152849457189473,1.1168222350539152,1.13438146033887,1.1605262670292336,1.1820361319757196,1.185257216389103,1.1764612610345406,1.1732948239789933,1.1810249610520234,1.1956532321426898,1.210428756462916,1.220735159077879,1.2267887178865953,1.2337496154424843,1.24179145273475,1.247369677579941,1.2577166223699006,1.2793761644776964,1.3036108078974533,1.317232291980394,1.3279935397254663,1.3384126828460927,1.3378269555510127,1.330936469872151,1.3190525574792333,1.3054996395384544,1.2916771006914785,1.280941936688736,1.2749522601176546,1.278278000962896,1.3022391815234882,1.337300470095374,1.3805884915293458,1.4302262496200375,0,0,0,0,0,0,0,0,0,0,0,0,0,0,0,0,0,0,0,0,0,0,1
0.7093021618232275,0.12622213217552727,0.0,0.28263754525193746,0.697279858927763,0.9311348348613837,0.9486491213029266,0.8453923478293021,0.7278169177384194,0.6786635732634932,0.6866771311783264,0.7170345271521962,0.7419020562612135,0.7590586514978872,0.7717364896398952,0.7824033252800109,0.7896672914655434,0.7942412067953186,0.7994008960563996,0.8066383764825197,0.8166361806970821,0.8310379988290134,0.846967461608294,0.8606009030663807,0.8700746379230083,0.8761163850613976,0.8766816531016439,0.8771658471560188,0.8817548785180586,0.8914122186870056,0.8986214451995588,0.8940637244890528,0.8842851224323115,0.8775388732254291,0.8770764341110944,0.8858108440718876,0.9017581926858539,0.9139867335065999,0.9166055436403869,0.9153974294077368,0.9115405706465562,0.9121296909131296,0.9283931392312706,0.9540136442157502,0.9839837457916856,1.014906519894028,1.033597179280764,1.0371621547801655,1.036986496732418,1.0447699920907618,1.0648172569999155,1.0728260179303863,1.058799844662085,1.03686422046838,1.029051949420524,1.0500452012545345,1.0754561306475305,1.0917333806205995,1.0868010355869162,1.067528902445055,1.0557431410083704,1.0718562779489043,1.1046944817151432,1.1283268883968847,1.1456921559247424,1.153485749251157,1.1403295345110074,1.1280707494577877,1.1365249478708574,1.1591108393988139,1.1781360057893355,1.1864305659992955,1.1893732054779191,1.1902893349984638,1.2023592898728799,1.2244601125936516,1.2420204710172036,1.256563346485763,1.2701259454332088,1.2794747049987745,1.2844081047011588,1.2954927297719625,1.307338268847803,1.3053372031339288,1.288960547002791,1.273836820757925,1.2656099993922163,1.2664558479114432,1.271991986691647,1.2870063957375988,1.3208414390559453,1.3926547201502208,1.501559858527705,0,0,0,0,0,0,0,0,0,0,0,0,0,0,0,0,0,0,0,0,0,0,0,0,0,0,0,0,0,1
0.7969016176634268,0.22114773632704013,0.004616445470869992,0.2024166380278673,0.6243201574077365,0.8991766456600365,0.9475882494118454,0.8497728726689167,0.7299028168485999,0.6713551000994235,0.6700793962088751,0.702950637456174,0.7371336912910693,0.7645558684143658,0.7805151755279329,0.7890173376897789,0.7926979925798386,0.7962972074863065,0.8076438104694957,0.8233030859137744,0.8387465379965112,0.8516992056129422,0.8640382309323212,0.8753401004746423,0.8871798502866578,0.8980599463649235,0.9008555213000353,0.8936892426940619,0.8777246207307262,0.8562900019189482,0.8396909039084632,0.8298528907721405,0.8217250537964318,0.816847736936219,0.8151295876097457,0.8226612872747012,0.8355863978940387,0.8545187953270592,0.8878542002972213,0.9298328383311106,0.970098450438762,0.9957741105050607,1.0053756044343094,1.0041831251314262,1.002683523547046,1.007189616507581,1.0133722342085298,1.0163088127866995,1.0176706673043507,1.0194748139818295,1.0213173085379208,1.025274250710615,1.0342336607792462,1.045208609907316,1.05416280329153,1.0626790160007753,1.0737963318153698,1.085679262998178,1.0967793692895877,1.1062301664491037,1.1147511716679586,1.1234799969225935,1.132011845080711,1.1410823434595467,1.149027511202451,1.1562188102934963,1.1659141602948713,1.178513633610924,1.1934672969957039,1.2155860303163577,1.247702848552259,1.2743704824985755,1.2912808872038362,1.2967009973601873,1.2869988572259885,1.2674250391753519,1.2447801819736743,1.212122212180216,1.1841866109944776,1.1649809131205282,1.1663310397916387,1.2002552512684526,1.2578582428247762,1.3396529435317153,1.4373553398058772,1.529387852434383,0,0,0,0,0,0,0,0,0,0,0,0,0,0,0,0,0,0,0,0,0,0,0,0,0,0,0,0,0,0,0,0,0,0,0,0,1
0.6930658604646297,0.11675130644464807,0.013764026781866645,0.28584813708518875,0.6699954052600242,0.9152323660940462,0.9229598712783929,0.8197190688242946,0.7087356373035567,0.6637770341517775,0.6686965495822299,0.6966745525086052,0.7281443593541211,0.7543317707833584,0.7662288511499997,0.7648107812314124,0.7610018734879321,0.7644971128467292,0.7698386576861302,0.7786512044684681,0.7900029536599976,0.8005947677743934,0.8167768790336541,0.832233222133333,0.8422847044050776,0.8520111187550748,0.8573832116064285,0.8671538954234158,0.8749042339711084,0.870452123664835,0.8613341827198167,0.8483091010339567,0.8314883796241446,0.8184126547532863,0.8140862206550492,0.8093767431978807,0.8022559632341058,0.8038406058464146,0.8075032916931887,0.8178005390864573,0.8360877652963985,0.8561997666460808,0.8764226516333344,0.8894556874614684,0.8973393067617131,0.9132037192613561,0.9353212301364756,0.9529822061295992,0.9636551853617533,0.970447731557124,0.9726761089087205,0.9737357968531377,0.9760385605128125,0.9767120529161716,0.9761554844490234,0.9771816360802775,0.9807389103533595,0.9854784319870753,0.9911918888463165,0.9952366677777243,0.9981478484569657,1.0044019646726132,1.0143272399548997,1.0232284115823773,1.029473476173387,1.034316722118281,1.0418708324003507,1.0494306053931288,1.055461648185339,1.0633828002072472,1.072620442699008,1.0825390226582183,1.0904588372648307,1.0944152763313904,1.0968797779838386,1.0994019238396284,1.1039288912784768,1.1107540617828886,1.121519544107223,1.1350281996413458,1.1466912052923193,1.1504074148850494,1.1492229135084517,1.1469074838286784,1.1471055640808134,1.1533737353500915,1.1654961475356427,1.1823772622572286,1.198146499294649,1.2047318325374292,1.2036311338278418,1.2042674840123369,1.2120135806341827,1.2205078057983434,1.230411621670835,1.2432646055109544,1.2630494343296474,1.2863460988218176,1.2965720832791436,1.296099421200418,1.2874676365255764,1.2710977011397717,1.263810955450071,1.2605602992559843,1.2592467308632338,1.2581660360620694,1.2630454008699858,1.2708703313577683,1.2994159149400297,1.3666094015643493,1.4543086853517138,1.5417267391432277,0,0,0,0,0,0,0,0,0,0,1
0.7810181416132916,0.14004676368420602,0.013149136347926459,0.28869135608934365,0.6813442359156775,0.9135180847840993,0.9329020301392643,0.831419116477795,0.7321797922011855,0.6889771638693495,0.6945420148485563,0.7232773717060117,0.7535092389853615,0.7705594841891289,0.7751665709755496,0.7748103103617447,0.777079841055128,0.783745773598269,0.7917808656146172,0.7995677510569993,0.8077933925710448,0.8156433038517421,0.8230115541858234,0.8294747515097665,0.8363937037979489,0.845843866909322,0.8552254629449723,0.8644270306764753,0.8728513202059389,0.8785111175622434,0.8798487894994506,0.8763840736717056,0.8723126164976784,0.8693229045813742,0.8642852966810566,0.8571935623019644,0.8521132345040947,0.8528099163820743,0.8575162383663341,0.8625289986802691,0.8681222367597052,0.8740540040340717,0.8790298075435686,0.8865216310093372,0.8982001897154094,0.9131622620054402,0.9296172225007615,0.9440176770114408,0.9571053718643281,0.9685640485350867,0.9757748899305422,0.9775666952321909,0.9808498392797935,0.9899815220871058,0.9995865236686695,1.0031929463537237,1.0049720754319635,1.0076783144906165,1.0079474666121893,1.0079982847718945,1.0130606648888725,1.0214466012630927,1.0288076490198932,1.034249869765543,1.0374380996203683,1.039942700004467,1.0456983085352205,1.0541101931696122,1.062300725794322,1.0712166829963472,1.0791711252908964,1.0839156183558056,1.0867459825955545,1.0904528609861823,1.097236471926982,1.1049952939069934,1.1148477521378912,1.12619002974029,1.1348995998344995,1.1387529083841958,1.1409809935700947,1.1449730256733446,1.1491950750049122,1.1510852322560665,1.1547814173020514,1.162136425265846,1.1710869044529781,1.1789098406710272,1.185082652794353,1.1909243831188119,1.1949312644874095,1.196508601282509,1.2005048311109894,1.208440913958951,1.219251450945543,1.2279624705986911,1.232012579936262,1.2350611019369209,1.2371300598857218,1.2405253596859422,1.2496231662461887,1.2605862935054193,1.2690728995488056,1.2776247386946045,1.2899308096780833,1.3056949718474369,1.3220527675525882,1.3310211549660556,1.3377182350419001,1.3450471374378397,1.3465770791793674,1.3514967266232185,1.3535162183726857,1.3396130966630062,1.3158039327454947,1.2943696193169214,1.2785804299747399,1.2842256381411257,1.3067238547500475,1.3484843152759536,1.4105367271590978,1.4684397467180528,1
0.7762643112852672,0.21277190842993368,0.0,0.22833514142863884,0.6867776488677408,0.9258435772210698,0.9411784373039742,0.829804374165097,0.7220204293692772,0.6809433625133495,0.6984509393194364,0.739889106906201,0.7776982887054233,0.79089761179832,0.778750583512404,0.7600060590790688,0.7544010842531227,0.762902954484056,0.7871115784656875,0.8117663492853389,0.8329641620136066,0.845833585703517,0.8462038285667068,0.8360494427472366,0.809318111940371,0.8002244581175203,0.8238960730221934,0.8601395618407608,0.8960763952853427,0.9162034543851314,0.9133734989678688,0.8970976888299932,0.887726227659509,0.8843403407926507,0.8787470764385972,0.8702336401514813,0.8645902974739575,0.8666513932627451,0.8738188831486988,0.8702848317569403,0.8568914926209599,0.8488828846958668,0.8530273724754206,0.869546948756468,0.8906571765008365,0.9094892474440093,0.9273689877973709,0.9446021144024812,0.9580155933044379,0.9679358985441053,0.9783736361544774,0.9876650463915624,0.994573848061512,1.0014361437459383,1.0123421992875747,1.0224895852436973,1.0207804012488029,1.0153055035490832,1.0209583141455671,1.0307641484982013,1.0338136506570925,1.0336349171487613,1.0394892026241918,1.044010974556525,1.0419432461056357,1.0405185738134988,1.051034895940062,1.0680608672918868,1.0812581817475675,1.0861488378583153,1.0875050144971898,1.0913184823789304,1.0983719381141994,1.10500815573064,1.1144661441310204,1.1246985637871396,1.1318680514268549,1.1365491207089007,1.140044896236402,1.144887299922875,1.153916909450221,1.1633748161676354,1.1742800459774059,1.1862833565738395,1.1924488543073306,1.189669928025624,1.1892647712091509,1.1945294412700247,1.1964099014748633,1.2006795356283526,1.2139930439677264,1.2308618121059913,1.2413401461758808,1.2466137990533324,1.2496052594861022,1.2551831320567934,1.2640544598401864,1.2683420372413088,1.2632320780479567,1.2636839832807234,1.2832715736925668,1.3102817499200803,1.3363204743235764,1.3561400303718956,1.353193427324348,1.3479120494622483,1.348687970000194,1.3423649610712753,1.3245638088088418,1.3006815307496147,1.2775751858960822,1.2843028364885392,1.3355871693452208,1.4121321263036006,1.482873635601821,0,0,0,0,0,0,0,1
0.7586526522169512,0.10330126443812766,0.014018527230017305,0.328710524964814,0.7307226028256768,0.9685330488896978,0.970493940187448,0.8506362001517818,0.7429444745300493,0.6956134239217947,0.7032646581435713,0.734813860411794,0.7662249322742776,0.7840714214207554,0.7909949275802638,0.7921356248405458,0.7928031610159604,0.7994276367440419,0.8113474917012782,0.8224419551917246,0.8310325890285668,0.8378446853149141,0.8433486712904059,0.8499320963692311,0.853414396176073,0.8595196851425893,0.878879109590307,0.8970520354805576,0.9078775908560344,0.911404202910137,0.9098249950383195,0.9120682767373731,0.9123035650492707,0.9105974237609212,0.905744650285933,0.893441745420754,0.8817310689305515,0.8791210356251659,0.8850964091795552,0.8903929054306609,0.89304300677409,0.89622827732302,0.8999506594103817,0.9059379539114396,0.9153002200274312,0.9293349231896542,0.9493029473939391,0.9721248839676504,0.9955598678969337,1.0110697483702071,1.01816937995113,1.0224418973508522,1.0309113382034745,1.0400938681779437,1.0425340572732094,1.0387646865795155,1.0390723313215235,1.046590404470988,1.054500781550018,1.0571990530294164,1.0579651358451023,1.0617549972238507,1.067944379718604,1.071436349609586,1.0777211612966209,1.0875401401494693,1.0960198195589899,1.103140574681689,1.1102283431482516,1.1187445606087432,1.128118275108268,1.13604531281314,1.1378350036704652,1.1406181439945475,1.152660771258687,1.1656102097782028,1.1731322795208583,1.1769522002109534,1.1778866456072405,1.1789038267029888,1.1883661982197036,1.2043214065405334,1.2181317524491628,1.2252626931353852,1.2279756017386863,1.2285998503520177,1.2273284566857037,1.2290908025888763,1.2403593579704566,1.252176116032105,1.2612714934038753,1.2744046520211607,1.2891970835563886,1.294255795559865,1.2880546239687791,1.2835891260555738,1.2936570709995299,1.313097112464201,1.325070065066908,1.3272148331362537,1.334352857080186,1.348087768705321,1.3633071109663415,1.3802062711335374,1.3896722976518625,1.3880269165842347,1.3818615410322725,1.3683436157620785,1.3632467244624547,1.3810534375806676,1.4080262316239316,0,0,0,0,0,0,0,0,0,0,0,1
0.7220312382789054,0.16407576549081973,0.009468741027641938,0.2736035961496279,0.6966423686357406,0.9466358807705196,0.9518205057178406,0.8367691553630319,0.7377464901734961,0.6871393983959578,0.6934516607437625,0.7242419418870026,0.7516808797651287,0.7694145031932759,0.7757918857985461,0.7780146984400969,0.7824279547209164,0.7894219160562364,0.7968811237321045,0.8036709662769224,0.8111033043745215,0.8198026579205326,0.8284910375132238,0.8368817176006316,0.8458270560901026,0.8516635957672076,0.8538286250538207,0.8609633422161969,0.8715368284611771,0.8846171157692932,0.8953912912377935,0.9002006633542323,0.8987362589598169,0.8898797932783025,0.8791144339939643,0.8720431547169629,0.8704539471309816,0.8697308853567185,0.8691735805914494,0.8656726566900818,0.8631414106573104,0.8595111542400703,0.86130326113943,0.8729921700414585,0.8893989013786978,0.9089727049720248,0.9272648883261803,0.9471484153108324,0.9622607301728474,0.97014700351117,0.9752968949690433,0.9835576875615077,0.9952254370236141,1.0037238869116596,1.0066293352566835,1.0095351800711347,1.0144838398430231,1.0180572252103606,1.0177958818847495,1.0184030196475524,1.0236139413951537,1.031687151705902,1.0382769789643764,1.0427232468345238,1.0468439745013307,1.053397312374473,1.0604130627153436,1.066684156270867,1.073057625683794,1.0786628818431445,1.08504105235804,1.0942553127007282,1.103315116910688,1.1101875885525405,1.1149423469917286,1.1203296650488384,1.1251718584122488,1.1297803735491714,1.1364418499563351,1.1435388741561132,1.1498883977700975,1.1565484317263597,1.1629473718191,1.168883595307177,1.1750761593287349,1.181354432412789,1.190494181700678,1.19938815999093,1.2028522417779277,1.203951618173918,1.206869197917731,1.2121480884465734,1.2188223494154167,1.2291546063440302,1.2394710366905168,1.2457672710855752,1.2468247950968836,1.2490032608635866,1.2574768639507816,1.2690120105635867,1.2826722557550767,1.2981823166425237,1.314190292821038,1.331300565269344,1.3426505464129255,1.3509990168055,1.3517734906525758,1.343319877621457,1.332358478169371,1.3204231409918923,1.306882035462702,1.2928550667974499,1.2918395302752015,1.3024471304308014,1.3216937442394583,1.3600911462820804,1.4316594945124765,1.5286767742162684,0,0,0,0,1
0.6531723077640817,0.10939857631635437,0.012919739319818897,0.299669665199813,0.6873578627928687,0.9136440085762297,0.9252954906273416,0.824433577289204,0.7152774079416804,0.6733121354934763,0.6801019281634612,0.7070895708835037,0.7301729784722366,0.7462357430537526,0.7564704838713205,0.7614837634728661,0.7625644678256642,0.7662358972496028,0.7736595340639736,0.7813061478232418,0.7888341663116817,0.8000215618991721,0.8120239804735319,0.8201815775000064,0.8256851311113955,0.8297451353399143,0.8334370890714442,0.8435631203087792,0.8571656452241522,0.8703394476758233,0.8796521173889256,0.8807530096227115,0.8767078343081387,0.8674772505278264,0.857727188286327,0.853655357781111,0.8536505240065372,0.8521783711862607,0.8441589621239263,0.8381410450200789,0.8345197700958679,0.8370528297106474,0.8532844863754032,0.8641740853926627,0.8699901698323993,0.8765049381204066,0.8914680672005033,0.9172102897838699,0.9399498185218198,0.955644377684625,0.9634192333736129,0.9677429980109332,0.9731633898939058,0.9826163588800018,0.9891998900053794,0.9910473251933185,0.992982220624407,0.9966980445635814,0.999920300121973,1.0028110492106355,1.0089423710604717,1.0167044102550502,1.0212076180024057,1.0203217995728247,1.0209594596021472,1.0303243911543862,1.0449959409406795,1.0555230441349468,1.0579776361564452,1.055704841195731,1.0591264872224553,1.0704449010512946,1.0835504058662373,1.0927323763613725,1.1004817388360009,1.107423258841792,1.1113706207472434,1.1127693609571647,1.1150863728905447,1.1203977548632444,1.127924819351307,1.1367023865364296,1.1461354208697014,1.1524836497210798,1.155961342076446,1.1588495173080258,1.1632654283451855,1.1700600416030411,1.1787930264860411,1.1847487906657372,1.1880365480512027,1.1915812757431599,1.196819471808024,1.2032583322244934,1.213854984905943,1.2305737825004504,1.2465350315440238,1.2603306935412555,1.2745609928426633,1.2901326347242863,1.304736317955457,1.3116495529775252,1.3104726162408,1.3020214446220206,1.290567114183548,1.2705703801929835,1.2473685683099995,1.2324288686295615,1.2292342815660513,1.238883956478586,1.2676473434140552,1.320348133800644,1.4201830223584755,1.5334750242070505,1.6111890614578879,0,0,0,0,0,0,0,1
0.7505669340074214,0.17480440587153367,0.015496456481777629,0.23053617701526888,0.6177510271409573,0.8957410037471601,0.9434872640908759,0.8505597072714878,0.7352632084980715,0.6783710533873785,0.6895554745971261,0.7143725726797109,0.7186946410661325,0.7283564512450081,0.7580147189726358,0.7851648421263687,0.7963284957254689,0.7901934861952018,0.7750698030241868,0.7731434999574347,0.7978475194715463,0.8236956466997322,0.8355085614958669,0.8407725901591553,0.8392789761844264,0.8465029140395641,0.8666510813999501,0.87704618833859,0.8775258346238594,0.8797607100245699,0.8827735352706211,0.886789928896015,0.890601303170239,0.8908467497028981,0.8791197673982051,0.852939465959809,0.8518735592854121,0.8830115229436507,0.9146400121454065,0.940835164946301,0.9647760516415168,0.9788705834131441,0.9618835076146683,0.9335014848956105,0.9068624183089802,0.9161912453794684,0.9693804997638954,1.0235801161527713,1.0558926045360573,1.0589887026711582,1.052035901680904,1.0263806425014346,1.007459355416543,1.0030818634282594,1.0053897244902907,1.0184719448429684,1.0585074450117244,1.1021278739454676,1.1025313819107203,1.0761441767609823,1.059295841073462,1.0715726275392674,1.096755439777701,1.1150078457999182,1.122494546915923,1.1187119334738278,1.1152794932925711,1.1280779158166703,1.1505961868690355,1.1737196370389327,1.18282890531041,1.1807589459634455,1.1904796512005023,1.2181403735507015,1.2325408585266007,1.2385047378528353,1.2758615602250483,1.3212469478841073,1.31668991233091,1.2768540516780569,1.2449803216877324,1.2204354488819977,1.1861049473028349,1.1732826091717816,1.190311796144124,1.2148600207666285,1.2293360590817441,1.2616025753788012,1.3222339670810317,1.4509688592310253,1.6768681219741983,0,0,0,0,0,0,0,0,0,0,0,0,0,0,0,0,0,0,0,0,0,0,0,0,0,0,0,0,0,0,0,1
0.7196993659446113,0.15648509918795628,0.004707399133442162,0.26185112959369217,0.6839999518606749,0.9385406093028344,0.9419403838708043,0.8224371886700141,0.7158011709496123,0.6679791087852126,0.6733446515413815,0.6960385942053421,0.7232281737020241,0.7426564104783108,0.754084985390906,0.760429353307875,0.7659628371188724,0.7708708908213875,0.7760687721262344,0.7867727344509498,0.8000932410039561,0.8105751741421033,0.8170414740747838,0.8235609843408,0.833506118546627,0.8419349169502585,0.8512747317611332,0.8590448832949599,0.8683519392322139,0.8792166587715396,0.8880335232764498,0.8881931507072595,0.8694342630538003,0.8469083773254634,0.8351082215502958,0.8380410494278834,0.8433399438652555,0.8361573864976325,0.8242147472882859,0.812392121137335,0.8117081363849035,0.8213878287027622,0.8442809834980679,0.8842190770088281,0.9149623413733882,0.9222314381428117,0.9279914597218993,0.9426174740946872,0.9612924834038751,0.9747485962959324,0.9835471099593271,0.9926980290849966,1.0006367484614762,1.0043168746665045,1.0006310240704221,0.9937517841038125,0.9959144489401315,1.0049704238107735,1.0130479929798533,1.0225950104231367,1.0344728879379443,1.0366298525461424,1.0271237051926578,1.0233371402918259,1.0335511261570494,1.0522491186505782,1.0706898280888282,1.079982298428329,1.0813958562458887,1.0870637999920172,1.0975226147982409,1.1015709045848612,1.098144619395104,1.0995442006175817,1.1111994348269632,1.127656210746485,1.138807572546539,1.1405959104067238,1.139807176789125,1.1516896368799594,1.1701771943901806,1.1739508030427788,1.1609083401556601,1.1581208445037094,1.1725485138647127,1.1899048200739866,1.2027020607197016,1.214811896925391,1.226456184860899,1.2360988644593833,1.2530075179822455,1.2769580393038424,1.301985735349557,1.3086643160477232,1.298477772703299,1.286388100649341,1.2610071128456577,1.239572841012224,1.2328060257791904,1.2319380698832143,1.2258179337413961,1.2398317563137227,1.273876665883866,1.3101505114449803,1.3609258399583073,1.4716499212366279,1.6522979954305947,0,0,0,0,0,0,0,0,0,0,0,0,0,0,0,1
0.5430924261757698,0.10941404601070476,0.0006742442665570722,0.15839636905648286,0.41005008467970067,0.602031882413133,0.6768459137118528,0.6692068358124342,0.6362147293301099,0.6131302955032403,0.6120917536674689,0.6269158120920366,0.6468184163387488,0.6617997685919484,0.6719097845361174,0.6800531165632755,0.6865338318593245,0.6911532734030601,0.6971054480576524,0.7043326370739912,0.7107979047673714,0.7155598307654786,0.7187270506716367,0.7207428395177626,0.7240934142451176,0.7291803454615021,0.7365097076585191,0.7502968045702256,0.769828609149725,0.7887204148883378,0.8030162798816941,0.8095213840698605,0.8093258771583289,0.8072584247250225,0.8088369121975835,0.8144383532559158,0.8225708815972592,0.8316910750124795,0.8419459831140166,0.8527416686032214,0.8626237482435244,0.8712885996186119,0.8791637832748,0.8865211473915934,0.8936703465415607,0.901486036291357,0.9096641230359708,0.9176497541652697,0.9245458904307945,0.9308618994870681,0.9378890472795959,0.9458901132778229,0.9553781972289255,0.9667558895988161,0.979531391474668,0.992616307543594,1.0025866105440566,1.0115839202950734,1.0221728439625501,1.0279025353510634,1.026698838439862,1.0216634365225084,1.017090854788388,1.0175150708233922,1.0223127468802837,1.0307562703672126,1.042671613789138,1.0550914110573137,1.068126895713843,1.0801283447212566,1.0840380823094002,1.068914786645081,1.057604729652499,1.1079603002692433,1.295910342956188,1.5444198112134526,1.7391840899816748,0,0,0,0,0,0,0,0,0,0,0,0,0,0,0,0,0,0,0,0,0,0,0,0,0,0,0,0,0,0,0,0,0,0,0,0,0,0,0,0,0,0,0,0,0,0
0.6752391900157387,0.20328864492046617,0.0,0.13326134958615554,0.4539106805218277,0.690892442245852,0.7991767059972452,0.8008018786929767,0.7644202353571191,0.7320244644128343,0.7277771020483298,0.7435420019585036,0.7679283682580084,0.7887518966571616,0.8015027877972464,0.8088133630844592,0.8148398934694806,0.8219339580265431,0.8302708823999104,0.8391548717683002,0.8476416628078616,0.8533768843393651,0.8562670244628942,0.8586035736419447,0.8634515552552277,0.8702375486555073,0.8803949498614384,0.8969022144852421,0.9168911262307614,0.9347311200463299,0.9464203362315324,0.949715813959942,0.9482858425532178,0.9494746584475465,0.95482936149269,0.9640065487574415,0.9756529307122275,0.9879784833151408,1.001138497656783,1.0139851679593235,1.025526036954148,1.0360908381557645,1.0447804596673824,1.0522692094716806,1.0604772716020243,1.0692196690174032,1.0782916716605944,1.0867107265066687,1.095254775218122,1.1049816326672044,1.116400265470495,1.1265780050202727,1.1357450432108782,1.1478973928971672,1.1600934235461964,1.173665986914979,1.1885908661724671,1.2019436947747326,1.2099671806685752,1.215929831306788,1.222376935703767,1.220673975508679,1.2123857223173031,1.21021141585246,1.2185479799620398,1.2302699784656714,1.2394171637810716,1.2500329147701146,1.2644439044912426,1.278185493325736,1.285120065456689,1.282552766825794,1.2880003206039254,1.3404196398727712,1.4620130549367454,1.6709279791884886,0,0,0,0,0,0,0,0,0,0,0,0,0,0,0,0,0,0,0,0,0,0,0,0,0,0,0,0,0,0,0,0,0,0,0,0,0,0,0,0,0,0,0,0,0,0,0
0.7185387582573117,0.1801664209979392,0.0005856822732295626,0.1714534039429744,0.5034382092521936,0.7595955453592738,0.871814595045305,0.8681452491742798,0.82711820602258,0.7967378362752837,0.7942240068556992,0.8111868405675083,0.8339131833595612,0.8549287846209381,0.8684985403619275,0.8768697522571453,0.885122567577526,0.8943632445497616,0.9036885954458235,0.9120187347772907,0.9193778307288907,0.9255242400494308,0.9304784092061636,0.9345058137353212,0.938885871496203,0.9445297957300129,0.9525625082322945,0.9658824223252975,0.9853185943228283,1.0067446360497943,1.0248358431189002,1.0356496802420385,1.038919075504131,1.0394512822853208,1.0399155733506817,1.0438521580069218,1.0541852589678138,1.0699088631239584,1.0853781864009817,1.0979153198039646,1.1097045310786653,1.1204117357802237,1.1295548322433386,1.1374400043656043,1.1460269720928828,1.1562341713549087,1.1669150042512988,1.176586073803138,1.1865515967019955,1.1972028504330459,1.206785765240859,1.2143313110489977,1.222920934462293,1.2334166482566513,1.244145054478401,1.2547384877678263,1.2667683958954732,1.2806843900662765,1.2964851962103443,1.3129841553894337,1.3277965927340476,1.3383952529761987,1.3448851850285342,1.3506368712019807,1.3487707188820302,1.3406564822310043,1.333519947520596,1.3362981412002257,1.352139158711573,1.3725414689948605,1.3885796854334411,1.395366582206948,1.3980843437269654,1.4081379592816978,1.4348103029530928,1.4678301645123044,1.5056944226528348,1.5563105022298527,0,0,0,0,0,0,0,0,0,0,0,0,0,0,0,0,0,0,0,0,0,0,0,0,0,0,0,0,0,0,0,0,0,0,0,0,0,0,0,0,0,0,0,0,0
0.7339530742265267,0.12799189799551203,0.014262288183037767,0.3047937379592502,0.7009782708098241,0.929398808259996,0.9367520969586485,0.8350865291305454,0.7369811209946905,0.6959021524862143,0.7049809348854367,0.7387601375938267,0.7716782848901523,0.7912998916159212,0.7999747052492303,0.8038211367646715,0.8092812579379982,0.817023350408783,0.8261296823130378,0.8363240397129477,0.8463409226531867,0.8554162237826998,0.8609226833395818,0.8633518106674618,0.864654474059584,0.8667800363109575,0.8694926318881683,0.8749931566089708,0.885510569137936,0.9016456601761655,0.9247162530246424,0.953211764544175,0.9760996853877677,0.9877740773892064,0.9879381332993594,0.9797446828381539,0.9720609317897411,0.971004192886924,0.980870884926052,0.9982288251800101,1.016936241333747,1.0323133063882663,1.043575296179816,1.0522429936814939,1.0591608559174615,1.0653099425970132,1.0719054652549747,1.0807290241319165,1.090664389894157,1.0989048903061875,1.106013357250938,1.1131410017517596,1.1206014596608265,1.128589120946813,1.1372266866187626,1.1460672879507459,1.155215180040818,1.1673477503121057,1.1840783167875557,1.2033793382698448,1.2239346315379511,1.243927733358612,1.259506431107503,1.2690376000492782,1.271687512345254,1.2687959314620076,1.2614364881037528,1.2459995867797031,1.228331258412211,1.2160074527497444,1.215678615629398,1.228478842988911,1.2531063614384768,1.282122560552709,1.3095988865202077,1.3333410106918957,1.3619208421105466,1.4130740289223964,1.4913251340567182,0,0,0,0,0,0,0,0,0,0,0,0,0,0,0,0,0,0,0,0,0,0,0,0,0,0,0,0,0,0,0,0,0,0,0,0,0,0,0,0,0,0,0,0
0.686999982107703,0.13561217991306845,0.017635910287503775,0.30316576548884844,0.7137457145094394,0.9220127582923588,0.925589434186622,0.8231434462688464,0.7281669477347112,0.6890912771099909,0.7011768947566288,0.7344607881830215,0.7657448339123306,0.7854099405574428,0.79458982326422,0.7998916005700571,0.8050937006879478,0.8126352568467629,0.823054949087006,0.8322772235986325,0.8408589368344487,0.848659861967642,0.8542437349260833,0.8564615300538617,0.8560131451609291,0.8575088872308214,0.8610684229390065,0.8689333859988781,0.8844545817315288,0.9082741743793388,0.937432828236957,0.9660493682015602,0.9839780844976121,0.987343078918348,0.9791586908083585,0.9672457639827733,0.9599445936419003,0.9655279987078261,0.9822539116995369,1.0022444075603627,1.0201315430445255,1.034624724913895,1.045947952821078,1.0540069375456302,1.060286316328923,1.0663377899283752,1.0734269845287132,1.0813783840026845,1.0895435438019272,1.0981788466420388,1.1075486789264366,1.1157883692020216,1.122707967495606,1.1307929370676355,1.1405360246910305,1.150136543388992,1.161136859530829,1.175912044003899,1.1959416206583724,1.2168572383298748,1.235179339506808,1.250891158779414,1.2612969272145294,1.2687885063375293,1.2694121021977511,1.2606001586430025,1.245396107560821,1.2336421067686774,1.2211677554720353,1.2160262257045498,1.2234102353661584,1.2387561704842762,1.2633703841151767,1.2932843506616705,1.3283779213076918,1.3661546296023213,1.410025281911076,0,0,0,0,0,0,0,0,0,0,0,0,0,0,0,0,0,0,0,0,0,0,0,0,0,0,0,0,0,0,0,0,0,0,0,0,0,0,0,0,0,0,0,0,0,0
0.6738962931662086,0.1315577399358049,0.009652297470925516,0.2728476392666173,0.6492984157156522,0.8568638595451581,0.8637565166443436,0.7672175246295895,0.6736827986063874,0.63405169284694,0.6431773514471959,0.6732651807296883,0.7022125305602505,0.7191958245966377,0.7260454055314924,0.7293418107890235,0.7329491247218094,0.7395418343335786,0.7486729718001336,0.7588895836386431,0.7670348501491634,0.7726722112562263,0.7766334257174238,0.7794013847769823,0.7813231870935914,0.7813030448540362,0.7810462247214177,0.7822840145983605,0.7882220376632288,0.798386937617935,0.813387824734861,0.8358943099541318,0.8611630612198417,0.8804640006928246,0.88950206656827,0.889367107072937,0.8835492483104299,0.8778913647424419,0.8756862409723051,0.8807459193973527,0.8935835397435058,0.9103701161167638,0.9260882146163152,0.9377373075463195,0.9450377384528623,0.9502567133049702,0.9546825275366798,0.959627983627111,0.9654973815659963,0.9724890134169824,0.9798726106552593,0.986767801080937,0.9928542166317151,0.9983773367846772,1.0039149458699963,1.0104437660033183,1.0178465799415712,1.025702393302494,1.0335592325262124,1.0415700476472176,1.050762430267819,1.0604931235710469,1.0695111569406133,1.079481420167556,1.0915918029564284,1.10534698230017,1.1198564755278304,1.1346777658823208,1.1481790162216314,1.158307724541074,1.1638363163585643,1.1635263991233018,1.155165234368229,1.139698763296404,1.1269699504955002,1.1197459128856802,1.119059130000548,1.1294985593308742,1.146296977835417,1.1637710274635973,1.1819165140422447,1.1984321083863954,1.2141530962295985,1.2380917484268392,1.3090559526235859,1.4510426022620324,1.658727814363747,0,0,0,0,0,0,0,0,0,0,0,0,0,0,0,0,0,0,0,0,0,0,0,0,0,0,0,0,0,0,0,0,0,0,0,0
0.5762294384500778,0.06029720268215007,0.018283287959549567,0.2812639231344024,0.5781592695301668,0.7404878570555652,0.7342523320198922,0.6489515141706976,0.5830835927854551,0.5596203309506954,0.5737872431039627,0.6010420687014112,0.6259122355556179,0.639651940093041,0.6474177634734498,0.6541635417086131,0.6616193182516288,0.6726165599552348,0.6850579178807913,0.6988971367320583,0.7145931710737786,0.730055989645354,0.7449754388284494,0.7513204613176817,0.7456612108848538,0.7358075826810956,0.7249361507255488,0.7126159188191499,0.6920762069191859,0.666332017983941,0.6411406239604296,0.6242646081137331,0.6287679549861867,0.6483577022042871,0.6809770105032366,0.718732107073105,0.7453565466757441,0.7668378182679765,0.782502906121875,0.7938274307782973,0.8045167395839964,0.8171606703992614,0.8286834506856373,0.8383024788892784,0.8447666328269668,0.8497053102972237,0.8553841168536161,0.8629784374865579,0.8714713332531006,0.8799086607308767,0.8864603967700652,0.8909494083496572,0.9001723807585702,0.9175278358136307,0.9396476100341098,0.957011107252233,0.9650833660145979,0.9704091818738187,0.9726899132281547,0.9671422690229124,0.9591253148493145,0.9538023958493695,0.9423107655661833,0.9174266509944832,0.8996827008804792,0.9037576556422262,0.9325652285198271,0.9744675884519737,1.0050086550043955,1.0256063453780673,1.0356185152113448,1.0415991880543618,1.0476117313498077,1.046757497368531,1.0077303711827383,0.950127637591229,1.0029188716416826,1.2685140494025922,1.7991729056903571,0,0,0,0,0,0,0,0,0,0,0,0,0,0,0,0,0,0,0,0,0,0,0,0,0,0,0,0,0,0,0,0,0,0,0,0,0,0,0,0,0,0,0,0
0.6414218323727724,0.11542553138126863,0.004430367242905652,0.24416811614245376,0.5955075740006652,0.8253066543842842,0.8577001854649906,0.7861345554416604,0.708179034033533,0.6699317332000478,0.6663123196364608,0.6886124434268539,0.7229504216945793,0.7536811353264582,0.7684264232326449,0.7605064261186837,0.7536549045739097,0.7794660566808459,0.814830681967583,0.8373896253713208,0.8401316066941893,0.8386142614526714,0.8550582488357903,0.8733918682150215,0.8844869659404407,0.8767348138235167,0.854027546516851,0.8384789472691165,0.8268642630777407,0.8093099528283564,0.7798538133290713,0.7532963819965199,0.7415281332598063,0.761703751419244,0.8038308092583096,0.8284690310005891,0.8485116398483724,0.8736560401309335,0.904244402207867,0.9279358341610551,0.9395828413379153,0.9606813681159739,0.9892109024693536,1.0079896197588647,1.0125458001102638,1.0038654120918789,0.9918246928842542,0.9894784670492289,0.9988520127382112,1.017482132673276,1.0445001601755683,1.069296013951423,1.0746758424565195,1.0669064904285228,1.0766166501606145,1.1035663804980294,1.1354445487751652,1.1499461650121139,1.14893651816661,1.141559407782301,1.1251523464375783,1.097721215443238,1.0804557411421725,1.082974696664676,1.0860022747257547,1.0912088397579993,1.1053215974324495,1.129258437483584,1.1579963000848403,1.1842146121155748,1.2062534759486858,1.2300435651518267,1.2360980161886472,1.2224675450398539,1.2485239132329795,1.3615082109674352,1.555948906674427,0,0,0,0,0,0,0,0,0,0,0,0,0,0,0,0,0,0,0,0,0,0,0,0,0,0,0,0,0,0,0,0,0,0,0,0,0,0,0,0,0,0,0,0,0,0
0.7333796975965479,0.1574695544860663,0.004511329312453272,0.22719009150426683,0.5888374371550645,0.8185769921610595,0.8658059339914603,0.795558616100642,0.7046048194963531,0.6581531319775881,0.6571198915148285,0.680977979939221,0.7087054457441267,0.7306936111146569,0.7440552831781019,0.750990977130359,0.7562464701335596,0.765182140739686,0.7769619509005548,0.7889856894177946,0.8018218649943145,0.8180985339625252,0.8369387146478677,0.8494297908165445,0.8552271929710215,0.8541057357314364,0.8453827238030216,0.8319767543667486,0.8162894730263324,0.7976444369130793,0.7738128701658437,0.7506970438073892,0.7371412901072366,0.7377449203738886,0.7529086720914988,0.7800356363700007,0.8139763151390207,0.8476410336011181,0.8749646908390515,0.8944355594552675,0.909567878372297,0.9216729679133235,0.934644144725528,0.9478667159656752,0.957152484691458,0.9621288939319178,0.9663456188479487,0.9750838725594052,0.9869919578321827,0.9939776653123206,0.9968947554216253,1.0013944928127336,1.008135340175487,1.0160241599016886,1.0285698505524277,1.0424285498996764,1.0503641569891855,1.054009709204446,1.062873559047649,1.0816079362285342,1.100170273199027,1.1160957982842892,1.1323446990620663,1.1439825804436723,1.1454459565543036,1.1355382955085231,1.118025579455965,1.097162734644718,1.0801212322386007,1.0697554823265742,1.0693229998807599,1.0873160354574924,1.1163506628330357,1.1443003681995896,1.1740575613815447,1.1955108967825363,1.2046215921694667,1.2101462850616382,1.2135455140786562,1.2082348844564714,1.193178336905398,1.1987883991792458,1.3024943078584912,1.5482735034516186,0,0,0,0,0,0,0,0,0,0,0,0,0,0,0,0,0,0,0,0,0,0,0,0,0,0,0,0,0,0,0,0,0,0,0,0,0,0,0
0.6301958624693839,0.097707737544232,0.016679895867681482,0.3082359051696111,0.6883719516492856,0.9028110532839672,0.9159589762965504,0.8299353239538121,0.7497404001710596,0.7148359077179739,0.7260566684522268,0.7567880921919672,0.7839334185763668,0.8014041145125903,0.8113271719402059,0.8163654570473037,0.8205206964927935,0.8269962700165019,0.8369126142832387,0.8505548076770895,0.8622682023930005,0.8715994498537833,0.8811001679619032,0.8906062712538544,0.9007786846942686,0.9109507685132447,0.9213750859293081,0.9326008638846278,0.9438304913139918,0.9536568493978983,0.9637965462867436,0.9710912420964921,0.9753507906342316,0.9762215388547079,0.9717383895185693,0.9621797339574045,0.9487469551128213,0.9349901667426348,0.9276136792812425,0.9289629203797981,0.9366897851060706,0.9515089639312347,0.9702977829505602,0.9887933954446221,1.0063822678437544,1.0239603951609557,1.040289285276128,1.0554870344180745,1.069039495269879,1.0812789687343856,1.0916777584729997,1.0997079291728582,1.106250057803955,1.1127902381984522,1.1202496576557042,1.1293315126280097,1.1387093817582656,1.1459670053974749,1.150765390777926,1.1558364728287172,1.1616267394326796,1.168209316816024,1.1763559648129733,1.1858555337094756,1.1962223514822268,1.206614588348013,1.2147964077147007,1.222406954034476,1.23083236124344,1.2439533803138811,1.2585147803471017,1.2684444221921534,1.269501332782356,1.2657558851068365,1.2648429992764694,1.2657637601679088,1.2723665931545523,1.2833396704125313,1.2990623978004965,1.3164854646566349,1.3298992955336761,1.336070404974282,1.338376452756507,1.3389707196626164,1.3476682553705022,1.3724558224842618,1.4270693862966122,1.4878031408578207,1.525001272709028,0,0,0,0,0,0,0,0,0,0,0,0,0,0,0,0,0,0,0,0,0,0,0,0,0,0,0,0,0,0,0,0,0,0
0.6183762348089274,0.129184346798971,0.015516786645932657,0.2734058221488395,0.6469435142421281,0.8408846601111792,0.8582728068699972,0.7822484465471787,0.7096741760651687,0.6783890313709493,0.6874147084302339,0.7120771198456459,0.7367007811952685,0.7537694425608266,0.7624568551945377,0.7679608587697246,0.7786910624485247,0.7898675225614927,0.796669569397021,0.802153933667831,0.8094630983576983,0.8199512186450921,0.8322987764813163,0.8420363368096153,0.8489851309548105,0.857908816569878,0.8701790899107144,0.8839274613196906,0.8949668620728457,0.9093467044455836,0.9184040429398641,0.9190699143771378,0.9206134921553523,0.9208446200388062,0.9165837446563159,0.9036962061552251,0.8916924601516546,0.8865704475168142,0.8859060581029831,0.8886792030973157,0.8930300208229347,0.9044075226557318,0.9208081266736325,0.9389438745896316,0.9576482123287196,0.9715616841680378,0.9843862344848987,1.0009773164303848,1.0203616989034037,1.0356192186129813,1.0417765409863897,1.0431338835798825,1.0464707924595005,1.0527626924804265,1.0620195231458038,1.0714585721607846,1.0774514527704264,1.0825644071447458,1.087112314904715,1.092672137568622,1.099879221719634,1.106477944389718,1.1125732725035762,1.1230335521716415,1.1448300651157206,1.167360778002075,1.1734662010641994,1.1662185455776506,1.1614479345007365,1.169390473247322,1.1827538763057572,1.1958750185430314,1.1970500164933524,1.190818770917566,1.1931956680293192,1.2065454083412057,1.223460275330903,1.2370869918870666,1.2516227171986984,1.262482196654617,1.2681603405295498,1.2679552751641656,1.2601855980519479,1.2527572501891187,1.273565198796027,1.351522541607017,1.4587172463955065,1.5548106335340357,0,0,0,0,0,0,0,0,0,0,0,0,0,0,0,0,0,0,0,0,0,0,0,0,0,0,0,0,0,0,0,0,0,0,0
0.7235823376800674,0.1662743741869845,0.012876440695157254,0.2564321131227719,0.6400876207109143,0.8704560987010022,0.907084060894237,0.8292071411834206,0.7507269929957396,0.7099957075633412,0.7176316051294354,0.7458937731903929,0.771462676412107,0.7886708807532052,0.7994622737547601,0.808766263302181,0.817957207294982,0.826099738418229,0.8336394386251212,0.8421039632280883,0.8521719528876985,0.864164018762584,0.8772551097689943,0.886416682121108,0.894243358208935,0.9041370576683291,0.9172614991647561,0.9297068438854535,0.9371092423927553,0.9452046814735889,0.95482853334247,0.9606985865208588,0.9630919293778084,0.9613356454637244,0.9541247924498045,0.943226812788681,0.9295872089318208,0.9184080521721021,0.9163199705921115,0.9207654413459845,0.9305254306315304,0.9427768433125554,0.960331465413126,0.9847158169374984,1.0053044582911368,1.0221634929731593,1.0348974675857605,1.047808583579187,1.0596404860078823,1.0689066612049969,1.076150499571246,1.0828719970445049,1.0899369270493602,1.0976542080693894,1.1059460267643733,1.1129239982897954,1.119415389828334,1.1259541457679803,1.1314540623107534,1.1357862453255907,1.1405348793866723,1.145878926101998,1.1541898860162265,1.1665719000747745,1.1808422737336175,1.1957228591708842,1.214285989865621,1.2346922656452117,1.2542675486160062,1.2660078873338085,1.261766176175554,1.241442286000092,1.21571825663195,1.1915666521323298,1.1894917225281236,1.2099979546593795,1.2400953356691107,1.2706930174968476,1.2925057683616812,1.3049888445766404,1.3112641384627568,1.315662769797077,1.3241026081113618,1.3348580220394406,1.3470544194361733,1.3529186525296015,1.3448570367570976,1.3413950252564215,1.425832154877066,1.6542614557566822,0,0,0,0,0,0,0,0,0,0,0,0,0,0,0,0,0,0,0,0,0,0,0,0,0,0,0,0,0,0,0,0,0
0.6995991316720059,0.11235756333248169,0.00159577293153107,0.22684577145648535,0.5676695855007824,0.8305895439552144,0.9190374998062493,0.8712450241364823,0.7746523100146951,0.7152090505488565,0.7033583315369808,0.7223519401071935,0.7497433426926691,0.7706866904628792,0.7825334756735287,0.7875565633308885,0.7908075226596623,0.7980126588819314,0.8075291524104113,0.8200666058831317,0.8337222154643743,0.845859661638579,0.8597417066219838,0.8718019552083345,0.880374213312594,0.8874680908993704,0.8864215440072342,0.8812190333741211,0.8717627283166988,0.854737899570484,0.832481334885482,0.8062332243857618,0.7867711314789662,0.7761781499574433,0.788857402394128,0.8199237924351934,0.8506275635767956,0.8819291288093375,0.9050677784810444,0.9220930667976142,0.9354869753864204,0.9449516217259795,0.9521636208276363,0.9591929410292382,0.9670509151509559,0.9753045286101216,0.9833473706936338,0.9903164071786507,0.9965776074806971,1.003958220204237,1.0118919280700693,1.018311634883119,1.0228620945730074,1.0276591974541796,1.0343883481290659,1.0418371844697192,1.0484359790380522,1.0543068991060276,1.060448366622187,1.0660850096069432,1.0713145900623253,1.0777686960500834,1.0858564141986327,1.0951856343719626,1.103656485873545,1.1107158037571443,1.1179085575291479,1.125048629763243,1.1318298082627052,1.1391747786169377,1.1463125134940506,1.1530030384222127,1.1603440279006778,1.1683823595678517,1.1762963808222615,1.1837080933007345,1.191182097109956,1.1998413743338694,1.209930863302842,1.2195086519447178,1.2284803221944045,1.2376831460498072,1.2455158360346017,1.2507577226684503,1.2529549815425776,1.2551256768921788,1.26148344082938,1.2681094460048226,1.2685417287633898,1.2644966802077457,1.2639196616825874,1.2688258526149492,1.277438635872102,1.2858843408242029,1.287044304801278,1.3001253253944665,1.3400485650820206,1.4477799073635436,1.5664900461593119,1.63096270619851,0,0,0,0,0,0,0,0,0,0,0,0,0,0,0,0,0,0,0,0,0,0,0
0.6826212064414748,0.19105232717340329,0.0001831951251428426,0.14887896016098356,0.5036174525667497,0.798945701583637,0.9026871448387799,0.8649960980783331,0.7752083800630877,0.7111297189448847,0.6948242916727957,0.7121735123015083,0.7389272584894765,0.7606750919562109,0.7740566089836804,0.781218576432863,0.7879000586401752,0.7973646170792441,0.8071336277506196,0.8184909268546298,0.8303348862425607,0.8419769255233519,0.8550962275723604,0.8679371942861765,0.8791585659361625,0.8861111175536703,0.8850772955964955,0.8806011657318137,0.8742228619336488,0.8611788669367536,0.844361016960227,0.8256447496857581,0.8112073207147718,0.8136502981622896,0.8312828020760837,0.8559085637541327,0.8862476163139491,0.9131896938002056,0.9322562581447844,0.9469581264310111,0.9585722586924152,0.9690991046802091,0.9787869308488678,0.9882854003992367,0.9973686969284729,1.0054965192677032,1.0135072511992613,1.0218856951312754,1.0306573338709597,1.0387693556090731,1.0449011441554927,1.050220931334792,1.056125785302052,1.0634633036599384,1.071173673586751,1.0792574608124292,1.0867027573597285,1.0931600222435442,1.0997287363678456,1.1075689375877622,1.11712897569787,1.1275404864858922,1.1378408957725652,1.1481050079037403,1.1587108738804086,1.169224279496309,1.1789427378942063,1.1867090662115254,1.1914407356082288,1.1957971256884696,1.2026977229300082,1.2119947146320889,1.2226580416118746,1.2346125240852819,1.242633093549278,1.2450203145095662,1.2437758681516908,1.2441286158073104,1.2464450005589143,1.249096790539708,1.2460489513068311,1.256634849862607,1.3047122553140567,1.403420401678718,1.5042939246434721,1.5609189174554219,0,0,0,0,0,0,0,0,0,0,0,0,0,0,0,0,0,0,0,0,0,0,0,0,0,0,0,0,0,0,0,0,0,0,0,0,0
0.7166039711491968,0.19770040116968693,0.0,0.18462474202446888,0.5649496022705727,0.8440204037357614,0.956018097608479,0.9174234978317547,0.829957847041539,0.7641903279762968,0.7436830884927097,0.7601563137581867,0.7871560706233095,0.8098381114361682,0.8221783827649056,0.8276397634437103,0.8336213262216535,0.8415217559055005,0.8525487738579852,0.8661473062813285,0.8782909693902404,0.8906549225915785,0.9043485001750233,0.9186799713166264,0.9308029562594061,0.9378642744635176,0.9430749927680021,0.9439906896921254,0.9360572844339997,0.9187311978005401,0.894150012544054,0.8649840699165044,0.8392936750087924,0.8263844339599504,0.8282325065910725,0.8544046657588159,0.8924148080647345,0.9210734302218831,0.9480963232116199,0.9722847427790651,0.9879962082706158,0.9990342493333472,1.008243592598718,1.017279544574815,1.026429363150546,1.0333549737789942,1.039377755408293,1.0466816154172265,1.0548042263961628,1.0630397890611574,1.072335453173278,1.0817557306284185,1.0899339899491014,1.0968562493729266,1.1027324918081431,1.1087208822007781,1.1153207305631203,1.121790773806859,1.1273787383712401,1.1318828958533684,1.1374502442760315,1.144188284022941,1.1530324566321128,1.16409893550329,1.1748473796254197,1.184350051899423,1.1929020052749784,1.2006414223761341,1.207452003329266,1.2137334492106773,1.2206117527641853,1.2287764588037557,1.2374911587111777,1.2461422322605935,1.255014997022064,1.2647182652255777,1.2742845728753396,1.2827728984949276,1.290008961172496,1.2978716471369174,1.3046682595054035,1.3092918480092222,1.314417897325997,1.321991131641142,1.3286201537988145,1.3333489296579057,1.3387629205403424,1.3463571522183246,1.3562707346735017,1.3638665586163548,1.3659582717905698,1.3635858986188294,1.3636736515242518,1.3760817019530818,1.4253643888240655,1.4926006413718342,1.5434606017640968,0,0,0,0,0,0,0,0,0,0,0,0,0,0,0,0,0,0,0,0,0,0,0,0,0,0
0.6787578204505699,0.16801227443570182,0.0034857743167187177,0.1813703385555878,0.4923316328364825,0.7207187411419935,0.8173488178654601,0.8062258459383177,0.7646971772283785,0.7318614954276327,0.7270391680241026,0.7399920841040122,0.7593233542571763,0.775079362032768,0.7861045322912329,0.7948166474957475,0.8025997083032532,0.8099803259122709,0.8192376679558663,0.8287810013859562,0.838308646413073,0.8512535802597232,0.8642922934253751,0.8775040299287068,0.8909587846776563,0.901375524363296,0.9092838579762449,0.9137704582886595,0.9146687184645826,0.9145476306965757,0.9110429295816307,0.8988444816842865,0.8769682452090134,0.8544394309727346,0.8364715391467468,0.8304298983131843,0.8398107383057017,0.860339415840956,0.8908983717034332,0.9208814716470783,0.9438968200597988,0.9604031519078677,0.9709714558537709,0.97812116631874,0.9841610409381225,0.9908751774976526,0.9979087126082647,1.0062116003211485,1.0144334070302483,1.022107898453184,1.0293842815846224,1.0351418359508011,1.0399561286317185,1.0444802610636554,1.050596787312453,1.0584883074529032,1.0669975454758422,1.0747502106934137,1.0807055171251763,1.0855270006134483,1.090412531447158,1.0960237019401864,1.1030254988461867,1.1115377527625852,1.1206019132747729,1.128568538956011,1.135254998590909,1.1411188943309496,1.1474632540875864,1.1545967741048742,1.1636970794365011,1.1734788240332088,1.181463129772049,1.1879802746718537,1.195048173060363,1.2024973969486632,1.2108576292618578,1.2204967754510283,1.2299907451105512,1.2411515782343285,1.2520179711259138,1.2601745315151893,1.2658217146078323,1.2683618230991571,1.2717706937433393,1.2772425508630718,1.279794657650796,1.2755990644180586,1.2751674123152188,1.278302583067841,1.2808234389620865,1.2847305794553405,1.293189137049639,1.3073007111848964,1.3219198824196876,1.3299849083031214,1.3307441128728426,1.3339953550334522,1.3808688162797116,1.4700728850408742,1.5585212785902827,1.6263193072519089,0,0,0,0,0,0,0,0,0,0,0,0,0,0,0,0,0,0,0,0,0
0.8150823009077114,0.16648409415822238,0.0,0.19387466243160556,0.5156972369082596,0.7850034168945338,0.8904948292166924,0.8841974406204168,0.834161545990388,0.8019425550232974,0.7992507755656914,0.8175117376349338,0.8391227363834932,0.8569906924954864,0.8680394255181239,0.8740267967373909,0.878381977477794,0.8891752261667694,0.9065966040803104,0.9199160097317919,0.9251924624974402,0.9283956767082852,0.938953996186613,0.9583710504936682,0.9867818671172632,1.012063486571914,1.0218954538713243,1.0248445805672095,1.0246412015990185,1.024451710423667,1.028050909073421,1.0263522892348007,1.014283048974797,0.9921548715259447,0.9663281638276857,0.9423854288885697,0.9315820908463445,0.9343771270894886,0.9436627531833512,0.9732742461765587,1.0141958271091194,1.049296526557885,1.0762638272621692,1.0955223397232576,1.106545611110571,1.1108382640472654,1.1121879957212712,1.116987478751261,1.127338710560995,1.1423832520782187,1.156160479761085,1.1641293213784536,1.16653549685875,1.1683701209453696,1.1754561372344516,1.1855199330213895,1.1951707290632194,1.20153403879371,1.2085020571549967,1.217092246085182,1.2237747172226525,1.2309365342001457,1.2385838509605331,1.2491244911324386,1.2608850769574136,1.2681170192304403,1.273170312050012,1.278750384359311,1.2879483543813082,1.3050187598374203,1.3202077012581634,1.322628376238354,1.323737627405197,1.3355449060104674,1.351407835255154,1.3651911366462253,1.3772819326432464,1.3850487535536067,1.3858578543520368,1.3852923372236285,1.392481220823248,1.4019619163068262,1.4105150889052667,1.4190043236375613,1.429912795577957,1.4444287397925428,1.449697442552993,1.4466635380586441,1.4483250037457547,1.460156292957251,1.4704143672368806,1.474783391307074,1.487727981429108,1.5212440082127698,1.5549754417008854,1.5716684668813279,0,0,0,0,0,0,0,0,0,0,0,0,0,0,0,0,0,0,0,0,0,0,0,0,0,0,0
0.7119008425121082,0.20518628508072462,0.005569868779645474,0.14956512691504792,0.4598970186872115,0.6816891458894528,0.7736611836083367,0.7680160645554485,0.7319453013311226,0.7058956308001647,0.7043515337935484,0.7182124555023173,0.738569425255399,0.7567382859403577,0.7664498245991719,0.7725685612130101,0.7815366720663877,0.792387388907955,0.803633726354416,0.8122465468014733,0.8198740702527689,0.8319523985548656,0.846222585641711,0.8630373293861691,0.8781786857022844,0.8892570626654662,0.8984910687165968,0.9045342757769615,0.9072348144196813,0.9098359960602471,0.9120553449412974,0.9107230199796154,0.902179035332845,0.8882749040466832,0.8745937640530465,0.8672415174213283,0.8610165993364439,0.8633606628202009,0.8834569428479606,0.9091372529115461,0.9331472841815935,0.9552824799344771,0.9767683206031893,0.9938098902891659,1.0035911422850012,1.0077400851915925,1.0116624479853484,1.0218095021279423,1.0327471520197813,1.0390428971792882,1.042029388040143,1.0482030496846604,1.0583879489390802,1.0682663770378769,1.0751579550800927,1.0812399818284588,1.0901144733113275,1.0987601892547754,1.1052056126513523,1.1137939596012498,1.1268217528629632,1.1417329224307355,1.1559466977068085,1.1697301485680067,1.1767186986975344,1.176595831987263,1.1780340962298983,1.18426133490942,1.1918721843341051,1.1981216214474049,1.1999605013799424,1.1947682707084264,1.1928394687061266,1.1997778079037056,1.219743306129459,1.2449134245765896,1.2621682834294579,1.2671683387327435,1.2670232713748022,1.2583588226852833,1.2464794456953219,1.2596412033484705,1.3385890140215104,1.4353842255112377,1.5090131247562832,1.5671017197232577,0,0,0,0,0,0,0,0,0,0,0,0,0,0,0,0,0,0,0,0,0,0,0,0,0,0,0,0,0,0,0,0,0,0,0,0,0
0.7207696991408808,0.20819708534996295,0.0,0.14135144317644027,0.46585947146174483,0.690106090989819,0.7780868374777685,0.7493980817873852,0.6840862630163932,0.6397972353623443,0.6350014808068292,0.6508293228605639,0.6739454599718518,0.6929294213691176,0.7032207524307509,0.7081594505226586,0.7134678756066588,0.7202521549503914,0.7258154501392343,0.731003826212894,0.7408631722805468,0.7612116626830185,0.7836822283822006,0.8028129217480888,0.8122532756655266,0.8116284025565035,0.806667755625286,0.7995203859525248,0.7964117740331845,0.7932641999728979,0.7855333671144368,0.766652438574492,0.7460548058825114,0.7373802722775856,0.745857826622044,0.7710399194411001,0.7955345221673134,0.8152632440652524,0.8335572168564832,0.8468515731474656,0.8599605135325902,0.8737147161637742,0.8864079118478818,0.8955783415038417,0.9027589821012526,0.9119257801938886,0.9220970353755112,0.9311030693709766,0.9391673382605213,0.9445463742277992,0.9483171535278175,0.9543914943112496,0.9600546454635591,0.9617127503127706,0.9627132459187,0.9677806210537795,0.9788521630015601,0.9911569050133059,0.9980144425265456,1.00346463992253,1.0120187662970725,1.024849142794365,1.0384988663860564,1.0489741663630763,1.056671148822625,1.0630319020513197,1.0725257659213938,1.0796439664250699,1.0828067937718417,1.079034426602788,1.0678218604882308,1.0632972327146966,1.0736016097326282,1.094077378157318,1.1109476912637601,1.1194524680249203,1.1246034798310645,1.1334679480232326,1.1451239395458657,1.1513540765217558,1.1521768282011822,1.1503350305985764,1.153057251720713,1.200985837022722,1.3325620810022771,1.4961500714712308,1.6096668063316208,0,0,0,0,0,0,0,0,0,0,0,0,0,0,0,0,0,0,0,0,0,0,0,0,0,0,0,0,0,0,0,0,0,0,0,0
0.690532787532,0.14337433361930405,0.014872731013215526,0.2645123719070895,0.6310016585676258,0.8568872739768834,0.914925577345463,0.8628076351483122,0.790398178356565,0.7501141030403299,0.752187854483065,0.7773531310113656,0.8056763377727005,0.8271747028017034,0.8395644529365401,0.8485133994782637,0.8585961179753402,0.8703416976584053,0.8831854782162454,0.895462495163688,0.9074177033564342,0.9225883773843541,0.9428187063606345,0.9648152683539918,0.9785445201268953,0.9866316547539821,0.9933606048889712,0.9956963628018908,0.9937571525782622,0.9855024321241767,0.9705662928630829,0.9519591387673776,0.9330373545309436,0.9264746360462047,0.9425565041105387,0.9746748203130712,1.0089337696382077,1.036329802715615,1.058472435504142,1.07839981462129,1.0953332477705726,1.1079396795392744,1.1224471228769584,1.1379319750643846,1.1500551092790816,1.1578908714327514,1.167541732932696,1.1827993527471012,1.2018085842049955,1.2199780562467608,1.2284285974295195,1.2263720728049592,1.2225547559518497,1.2245890733301124,1.233444689895959,1.2461398560161823,1.2553557455417332,1.2565264945434464,1.2527264277176204,1.2511301440610734,1.2565278090638083,1.2757483098137237,1.3014998349713092,1.328905287620802,1.3513395446707073,1.3618977324106696,1.3696165853460045,1.384954308780218,1.4215382571802928,1.4879248860259098,1.59425381852996,0,0,0,0,0,0,0,0,0,0,0,0,0,0,0,0,0,0,0,0,0,0,0,0,0,0,0,0,0,0,0,0,0,0,0,0,0,0,0,0,0,0,0,0,0,0,0,0,0,0,0,0
0.6464725500283577,0.1318737387529912,0.006935588768594125,0.21317224520107494,0.5290089584459073,0.7502409946242304,0.7934400682821874,0.7406107927662435,0.6783069638678038,0.6429191889971979,0.6440881338309767,0.6645632799132829,0.6874719875593767,0.7040027498878753,0.7131074662250221,0.7191637288204581,0.7251865035365792,0.7314906726880988,0.7375729914803948,0.7459384472937749,0.7578059441495075,0.7712240874045084,0.7866577057566777,0.7994928302720102,0.8098054049248476,0.8173406011432723,0.8193890276978499,0.8185825209676653,0.8161765950888752,0.8142233355253669,0.8102908809227467,0.804409946786897,0.791949886928523,0.7804381146615946,0.7794349126198203,0.7873590694577565,0.8040941764858164,0.826770366561591,0.8493432761854981,0.8686599706086586,0.882578873817429,0.8949389012764543,0.9055406955067813,0.9157710141947099,0.9256349845027209,0.9330889635835379,0.93900936016521,0.946391514900824,0.9549484661183351,0.9628671811573783,0.9682317573657844,0.9719630890186063,0.9767855871693756,0.9826878209124993,0.9892757186294443,0.9961330868857174,1.0028638930584355,1.0081160571856365,1.0137506709861752,1.0205030294585198,1.0298046093217181,1.0450488840824144,1.0669955066647872,1.0849026299061835,1.0963979575669787,1.098695967511539,1.0949638726164244,1.0974768676785405,1.1054429968518904,1.112744032895501,1.1103404855946972,1.0929500925709794,1.069055097210053,1.0552527152235558,1.0629215543043755,1.0863363729875102,1.1142597971159698,1.1430028318958274,1.1638031087270806,1.1772132228434697,1.188292372095504,1.1953758851508125,1.193941904503365,1.1976384288372146,1.2811350881509729,1.483035283258313,1.7868704170273721,0,0,0,0,0,0,0,0,0,0,0,0,0,0,0,0,0,0,0,0,0,0,0,0,0,0,0,0,0,0,0,0,0,0,0,0
0.688261841848912,0.14857956502495737,0.00479454260125486,0.2604619137439389,0.6609868580116289,0.8860339390296923,0.9106197490387731,0.8291063067667943,0.7495842798308687,0.711116579651957,0.7210815310790606,0.7505503277138972,0.7753312355011024,0.7892665404440578,0.7949030079705898,0.7955281306062885,0.7953312509726025,0.8001389205626994,0.8093416048760036,0.8182494041682098,0.8256215574700562,0.8329531189857695,0.8379732983869654,0.8393311072654701,0.8424773982335525,0.850586404807974,0.8586316317272992,0.8639813573458763,0.870251981707157,0.8788864020685295,0.8880913007553467,0.8987021904511234,0.9138455274399023,0.9335149124699391,0.9546854831203015,0.9684997179179315,0.9716266162700771,0.9656652574368678,0.9548980054989353,0.9449851690993466,0.9409874783061911,0.9439354401033793,0.9539011616602965,0.9682379553673537,0.9802009644854397,0.9886926362975437,0.9955893781572389,1.0009267445659202,1.0067598599721528,1.0145427385777883,1.025782049662541,1.038679819668587,1.0480744935297905,1.0516250823987063,1.0551310446406414,1.062514386004898,1.0703923303015337,1.076644844533193,1.0816237824837907,1.0863470337187426,1.0924397801752008,1.0989774806214898,1.1027333787029376,1.1057199810911171,1.1125009785864468,1.1217384892064424,1.1277590442611964,1.1322156575719675,1.138264241550553,1.1448801590399647,1.1513291001316126,1.1584956764328536,1.1659299890630848,1.1732173893877342,1.181239370450046,1.1897520488884328,1.1958834574574804,1.2007184410625207,1.2088984124397784,1.2187415542756743,1.2269546977969596,1.230466431877772,1.2345173025635847,1.2446601189255033,1.2601592417756269,1.2752484570916311,1.2854057512487147,1.2927291245432868,1.2967075461055926,1.3011840465062776,1.305066497983883,1.30490046770967,1.2990168458557232,1.288731087531734,1.2824667174416893,1.2822610098031937,1.287989862734439,1.2951064821234348,1.3018107578408293,1.3137872246415014,1.3321313656640825,1.3525063021949468,1.3691717329765214,1.3803004374068022,1.389257262066269,1.4040601525670446,1.428576508520343,1.4891022529825546,1.580977231242475,1.6765623013138868,0,0,0,0,0,0,0,0,0,0,0,0,0
0.7143980003331966,0.13522727102987647,0.004689049713386582,0.256724667195157,0.6282100199322004,0.8578709773765256,0.8840151809161582,0.8103691262229896,0.7270202079776437,0.6925376407454543,0.7016888700317189,0.7291193391255738,0.7551621167607757,0.7720226710519448,0.7796492632470257,0.7819977318692238,0.7829905930471185,0.7855079143699973,0.7917547233317791,0.800858791934052,0.8110604829913494,0.820819075170825,0.8284149647472416,0.8342756109168638,0.840025652385935,0.8472397588081787,0.8540908362680303,0.8601745696734854,0.8680811533379166,0.8778871671274556,0.8881367161539305,0.900042088760839,0.9154857309662926,0.9329014974469132,0.9478878487486012,0.9566367156804927,0.957156635700449,0.9526728522943593,0.947265220137148,0.9442137315097113,0.9452233886746796,0.9530938507810117,0.965743441538922,0.9773646010073823,0.9887350012533039,0.9984867704378112,1.00603551753851,1.0120681505452729,1.020159103602221,1.0314920333352524,1.0415635243346406,1.0502950861572387,1.058133341047087,1.0651112029938332,1.0718891832857649,1.0786755761546234,1.0878826908716255,1.0968956562652814,1.10283085502257,1.1052291224737518,1.1047267964062053,1.107563691350079,1.1175942988872523,1.1301098991033887,1.139875829057577,1.148832752277065,1.161103143120506,1.1742000120442804,1.1845736305487256,1.1922786830019707,1.200668439383754,1.2098649789439706,1.2207284548019472,1.2300859098882915,1.2339505571742235,1.2317746591668244,1.2272765745136733,1.2219363511054009,1.2215272737520124,1.2252194965522134,1.2322712388836592,1.2423127407318768,1.2501627190666083,1.2528389885323494,1.2577256593618042,1.2680595269737975,1.279411023409355,1.2955994908446093,1.3129645845151976,1.3320388783630353,1.3545359301536335,1.3960382340181312,1.4781039480314473,1.590215540170868,1.6944596913186327,0,0,0,0,0,0,0,0,0,0,0,0,0,0,0,0,0,0,0,0,0,0,0,0,0,0,0,0
0.7966938163299704,0.1780241408206831,0.0,0.2299021029313458,0.6210424587009284,0.8891864350289692,0.9316219006626408,0.8538928810225205,0.7620485968880327,0.7187310567540282,0.7245077832053167,0.7521869091220095,0.7797072133075432,0.79620583625499,0.8025488950923714,0.8043859503387489,0.8056958910454007,0.8098494389143408,0.8166108391755973,0.8243491386770311,0.8321970016575706,0.8397379727414988,0.8452604980999929,0.8490366671607192,0.8533206987966319,0.8594348854962751,0.8652028692485617,0.8699178426937344,0.8753244461837891,0.8819655924580191,0.8898498693815412,0.9007571302498414,0.917775301790168,0.9404333772847631,0.9626839115769592,0.981382089159854,0.9898115096735893,0.9872064093560914,0.9781343847981786,0.9654347072852391,0.9579909200884187,0.9594839541335084,0.9676307740646095,0.978153931846361,0.9891036444764811,0.998071618237281,1.0060865386961255,1.015301549815295,1.0245449786409648,1.0323443173301539,1.0388108970852417,1.0461905308502915,1.055409844577534,1.0658053181614184,1.0740388758161985,1.0796596748274674,1.0841893300202172,1.089045505380921,1.0941968973621639,1.0988586650998755,1.1035514000849314,1.1102251762518764,1.118068936172139,1.1240847762734962,1.1273237481721963,1.1311230667089374,1.1368410860908664,1.1442463335007316,1.153456038616768,1.1633799283571427,1.1705033661835924,1.1756084769665853,1.1816974420615964,1.1885734719136947,1.1941452051359136,1.200350451890677,1.2093014865982896,1.2194145514140184,1.2276716661989586,1.232741924100639,1.2375792978490963,1.2449206020904633,1.2539041761496619,1.2641860180230835,1.2740083283957215,1.280280791485594,1.2813638363458983,1.2822477466090536,1.288893091987267,1.2989224672673865,1.309759014077363,1.3201043516591608,1.3286326289585457,1.337756720710136,1.3424512557015107,1.3442492735170752,1.3496808752153862,1.355383535178332,1.3572551265476962,1.3544519311806966,1.3567442504046794,1.3639659212493904,1.3697212085832666,1.3793023639522772,1.3920813005865496,1.4338677684274892,1.4908419153444554,1.5296149277376518,0,0,0,0,0,0,0,0,0,0,0,0,0,0,0
0.8160483600051739,0.27793393062779137,0.0,0.11133774568666005,0.48551605272995874,0.7777877107621434,0.9135336264287944,0.8838935548221224,0.7974769478904675,0.7243651819470905,0.7040044544967737,0.7189375775255451,0.7479206127688968,0.7713760263337291,0.7850271385500046,0.7914001266560159,0.7957004374945552,0.8002030712201802,0.8071341051140842,0.815312379492034,0.8242039328369365,0.8332746713718148,0.8419785877924774,0.850631998406438,0.8582409541430819,0.8655033360785552,0.8721607586665506,0.877887821984079,0.8837433331524482,0.8897217746873105,0.896880160387355,0.9061118205730042,0.9178812243400302,0.932183626934712,0.9469774760757819,0.9567862725039239,0.96068333844454,0.9612421112696659,0.9609980814562727,0.9641206034874488,0.9707392042228759,0.9799167460489233,0.9895579322313672,0.9991007363746566,1.0079868411266808,1.0164728303978243,1.0256180236605492,1.0356040452569168,1.04580267993073,1.0554553959434931,1.0646117785058749,1.0728514834378908,1.0811221961639463,1.0894270802322585,1.0968641774475425,1.1042677908515361,1.1109199281244584,1.1175567206940198,1.124191408204927,1.1302076043528038,1.1361927869483097,1.1426892679643321,1.150661453207322,1.1584750394316712,1.1654956082975396,1.1721408587580395,1.1785747518333354,1.1872322731618519,1.1975669581618702,1.2085031212174107,1.2196165398176635,1.2302140712703993,1.2418795200929473,1.254311145160453,1.2664363268261678,1.274521648162543,1.2820648829077037,1.291243460705289,1.2945365025797428,1.2932811497742953,1.2927109867715318,1.2938045522833879,1.2932144630398452,1.2919909763972892,1.2936107778754724,1.314362258039962,1.3695499003434097,1.434056223598289,1.4895307101985271,0,0,0,0,0,0,0,0,0,0,0,0,0,0,0,0,0,0,0,0,0,0,0,0,0,0,0,0,0,0,0,0,0,0
0.7287225451214354,0.1907206363132829,0.0017741402834212136,0.19390027623828454,0.5800075698543732,0.8691991275798592,0.9684986642994707,0.9165633829318247,0.8267556353990041,0.7597635428285302,0.7472657414560323,0.7688141890571438,0.8006678604739061,0.822855996802626,0.8371978492529608,0.845121221224582,0.8496164141162061,0.8563231641531905,0.8667299738917171,0.8782600713560723,0.8901269338424013,0.9010911867269608,0.9120100546675112,0.9223023235127026,0.9295647177278854,0.9313660715378316,0.9368963795628091,0.951863598838269,0.9688281972704998,0.9807916529832028,0.990523861414371,1.001457739730585,1.011684318873733,1.0217187616295542,1.0290235966529062,1.0321220410296745,1.029871893891949,1.0271289531376266,1.0313044717918782,1.0438496817186018,1.059953158181826,1.0778083942915155,1.0936743238739508,1.1048250879836363,1.1094221264707194,1.1146791744416,1.125937608937283,1.142639783971789,1.1593002938915589,1.1701002303745154,1.176717541085171,1.184024124347633,1.192790842264673,1.2018363384175652,1.2115491430712102,1.2209982663919308,1.2324691175776794,1.2459134068759126,1.2532359300247697,1.2545919307676483,1.2607286565885134,1.2729194710515277,1.2845358796930273,1.2940573710054144,1.30277213462621,1.3106233743787474,1.3167549289799112,1.3226377235606477,1.3329617698682292,1.346037687792572,1.357630743671486,1.368589621643577,1.3794098129629664,1.400584360688359,1.4277686403827028,1.4596396717594375,1.4894041540696332,1.5135268052651272,0,0,0,0,0,0,0,0,0,0,0,0,0,0,0,0,0,0,0,0,0,0,0,0,0,0,0,0,0,0,0,0,0,0,0,0,0,0,0,0,0,0,0,0,0
0.8112921084892379,0.1936587615749825,0.010867159722922974,0.18169150570331757,0.5313313592178998,0.8179920948776598,0.9345797615368685,0.9009886709578848,0.8063777824858188,0.7438614514669116,0.7230496838041457,0.7411045948882299,0.7696768734565372,0.7933621629896589,0.8056905529762752,0.8107996575241972,0.8139570153197307,0.818887295147198,0.8284235514105155,0.8407248867681085,0.8527180162677928,0.8646308399727632,0.8741400820744102,0.8778978441543902,0.8777060543628291,0.8834769541805904,0.8978949839175469,0.9132249954059627,0.9262582821946039,0.9355926107895668,0.9385080462317301,0.9370071384706374,0.9392313142589472,0.9473391117142559,0.9616859635542764,0.9781287223067873,0.9851910837098682,0.9832272930966801,0.9844922964663523,0.9933779829605832,1.0000692119490053,1.0022006630432454,1.0130034554769625,1.031150114779865,1.0476411575990083,1.0561655349044157,1.0565046903959885,1.0608979058211028,1.0753532443056406,1.0906506515281003,1.101909760485295,1.112126855709803,1.1213353957473042,1.129828142346425,1.131004223137303,1.132667074972868,1.1432340290074443,1.159930653776083,1.174027192686005,1.1832890020885165,1.1887703500138773,1.1940481466454573,1.2013373781380776,1.2108148429621577,1.2175260842195232,1.2205570454504746,1.2220518120172437,1.223018901486922,1.2309944978717937,1.2500007702263527,1.2731317993075886,1.2911763657601307,1.3044068631655883,1.3108913204508041,1.3137672223468935,1.3188134013202133,1.323006636985906,1.3213707562835675,1.3201000429322176,1.322929682803722,1.3262189618079834,1.332057348389961,1.3503719037910844,1.3850718517112932,1.423895467637952,1.454638770845001,0,0,0,0,0,0,0,0,0,0,0,0,0,0,0,0,0,0,0,0,0,0,0,0,0,0,0,0,0,0,0,0,0,0,0,0,0
0.6048883587169617,0.16673139578639756,0.0,0.1355815738864383,0.4174985643324333,0.6370186264907716,0.7480469984681661,0.7535689512528184,0.7166143101043724,0.6807184897467948,0.6711447417871983,0.6796638122388903,0.6959611046152626,0.7132907924920634,0.7273096952751227,0.737891377590794,0.7463704950181093,0.7545231508374617,0.763151265506742,0.7715243904145738,0.7797176167752156,0.7878054211602106,0.7955409493437035,0.8046567551430678,0.8148195286212427,0.8250954261354856,0.8347122194417815,0.8455535982184285,0.8599490913122515,0.8769067171016972,0.8905443478891929,0.8957975489650174,0.8945098007579159,0.889914482767898,0.8863326955501674,0.888477783047204,0.8974718970420716,0.9118323378728829,0.9280987180814024,0.9437540037080464,0.9568486376196247,0.9667335790213514,0.9735068676931785,0.9802235066225702,0.9891541391437247,0.9969836570233378,1.0029369877975345,1.0093616399203156,1.017841965431961,1.0267534820985156,1.0330500733941372,1.0368085532925935,1.0411908500288536,1.0489404405482534,1.0601990565257045,1.0748129731874656,1.0920044596886056,1.1148066871640023,1.136950472096306,1.1525162039561003,1.1621730029822095,1.1639008544824427,1.1557043249361982,1.142476260876643,1.128639735769909,1.1162399873542737,1.1101323076185448,1.1147532009449115,1.1272255764461547,1.1504090303574168,1.174640372478325,1.1819954517924562,1.1826027100556542,1.2237717282179097,1.3325285533435602,1.5110400118003422,1.73441102514377,0,0,0,0,0,0,0,0,0,0,0,0,0,0,0,0,0,0,0,0,0,0,0,0,0,0,0,0,0,0,0,0,0,0,0,0,0,0,0,0,0,0,0,0,0,0
0.5463716549040128,0.09704625763270498,0.0013511773358532444,0.18767721878035212,0.46935269430994364,0.6834394690588248,0.7768337397663476,0.7712071414339987,0.7257071082553049,0.6980355856651708,0.6918740851309302,0.7056747168192445,0.7245818150862616,0.7414411102064616,0.7531346547491969,0.7614856900478971,0.7685128220944086,0.7756153721552239,0.7843474867739103,0.7959517185036167,0.8081452543003006,0.8186239048086706,0.8286334755777264,0.8365143725103702,0.8443781059506192,0.8543964265999302,0.8648342509320623,0.8771726815229506,0.8875353072423277,0.8975058203714587,0.9062409130642394,0.9085011169824312,0.9049506637079595,0.8985591994093345,0.8963370968841573,0.9016004777312079,0.914334503562327,0.9318197865064998,0.9511363496702221,0.9686566974476775,0.9833032312786865,0.9928912182771772,0.9985946453482318,1.004653235784897,1.011530349163896,1.0191093754330716,1.0278122044161444,1.0362030329833813,1.0441763857168136,1.0522290356137665,1.0603598969370438,1.066507964578176,1.0714525300900806,1.0788193500440915,1.0908707607335348,1.1068042893374828,1.1251548606693074,1.1462023798998968,1.1679766227478394,1.1904697447113426,1.2019862925354294,1.2018616469040384,1.194486695922656,1.1784321297374931,1.1537426283782548,1.127573598014024,1.118613963844035,1.124334976968902,1.1438968421645161,1.1759938507045409,1.2058689720914528,1.2192516136389988,1.235449954954267,1.2921291376787327,1.4020248795699308,1.5481121269168971,1.711994869305775,0,0,0,0,0,0,0,0,0,0,0,0,0,0,0,0,0,0,0,0,0,0,0,0,0,0,0,0,0,0,0,0,0,0,0,0,0,0,0,0,0,0,0,0,0,0
0.6364919070486154,0.15210449662591374,0.0016358068704467594,0.16258855797938546,0.47328097110313366,0.7226529730520881,0.8203105532763912,0.8201080636212116,0.7794868827404088,0.7441378106498446,0.7352895152288509,0.7476318312494435,0.7648848594444609,0.7797901368297726,0.7932978320259104,0.8063381612608982,0.817793419977721,0.8268244408926811,0.8338309828972347,0.8389401902819421,0.8449516471324235,0.8553488543606411,0.8688859414697164,0.8850867915549049,0.8992832891227899,0.9070069560429957,0.911502202620846,0.9166881280429227,0.9249937723951482,0.9350626337321429,0.9448951121521345,0.952271288912695,0.9530293362916463,0.9481980539913942,0.9416967912896314,0.9428761650947685,0.9562392058499272,0.9744387010415444,0.9920560011343931,1.0098474928361887,1.0252255612520114,1.0340604230877515,1.03963471963931,1.0475088501317293,1.0582888747431431,1.0712612440308027,1.0844174267224527,1.0931192009051716,1.0960784625478384,1.0968789611270444,1.0972200237963674,1.1021940749042956,1.1152605586539177,1.1306729615847002,1.1411035225737443,1.1469283475727785,1.1519715802738408,1.1585158170301135,1.1685069326771695,1.1820321009609764,1.195569946174618,1.2074697422145557,1.221562241630777,1.2378346826818498,1.2526846651198278,1.2600786110092623,1.2593997445256837,1.2573120974903975,1.2560846164675152,1.2583237600264554,1.2708541250562437,1.293810358574863,1.3154725260490865,1.3246281196661178,1.3260271770302927,1.3208379483016959,1.3035683353179441,1.290047587737336,1.3222110785170382,1.422507255180339,1.5347486064161395,1.5992674343528621,0,0,0,0,0,0,0,0,0,0,0,0,0,0,0,0,0,0,0,0,0,0,0,0,0,0,0,0,0,0,0,0,0,0,0,0,0,0,0,0,0
0.5762294384500778,0.06029720268215007,0.018283287959549567,0.2812639231344024,0.5781592695301668,0.7404878570555652,0.7342523320198922,0.6489515141706976,0.5830835927854551,0.5596203309506954,0.5737872431039627,0.6010420687014112,0.6259122355556179,0.639651940093041,0.6474177634734498,0.6541635417086131,0.6616193182516288,0.6726165599552348,0.6850579178807913,0.6988971367320583,0.7145931710737786,0.730055989645354,0.7449754388284494,0.7513204613176817,0.7456612108848538,0.7358075826810956,0.7249361507255488,0.7126159188191499,0.6920762069191859,0.666332017983941,0.6411406239604296,0.6242646081137331,0.6287679549861867,0.6483577022042871,0.6809770105032366,0.718732107073105,0.7453565466757441,0.7668378182679765,0.782502906121875,0.7938274307782973,0.8045167395839964,0.8171606703992614,0.8286834506856373,0.8383024788892784,0.8447666328269668,0.8497053102972237,0.8553841168536161,0.8629784374865579,0.8714713332531006,0.8799086607308767,0.8864603967700652,0.8909494083496572,0.9001723807585702,0.9175278358136307,0.9396476100341098,0.957011107252233,0.9650833660145979,0.9704091818738187,0.9726899132281547,0.9671422690229124,0.9591253148493145,0.9538023958493695,0.9423107655661833,0.9174266509944832,0.8996827008804792,0.9037576556422262,0.9325652285198271,0.9744675884519737,1.0050086550043955,1.0256063453780673,1.0356185152113448,1.0415991880543618,1.0476117313498077,1.046757497368531,1.0077303711827383,0.950127637591229,1.0029188716416826,1.2685140494025922,1.7991729056903571,0,0,0,0,0,0,0,0,0,0,0,0,0,0,0,0,0,0,0,0,0,0,0,0,0,0,0,0,0,0,0,0,0,0,0,0,0,0,0,0,0,0,0,0
0.7331245253220944,0.248805598109478,0.010771689783276086,0.09978823620796817,0.4861806100421824,0.8582377240321093,1.0305527737543596,0.9635477863413371,0.7894888864961641,0.6594532342074304,0.6077579583461689,0.6225611939410388,0.658943853081931,0.6855029212897152,0.6992832498378304,0.7067861044415679,0.7103987845008898,0.7137348844689373,0.7210842783128181,0.7298209025377033,0.7334984768296368,0.7343285962435294,0.7386920249131763,0.7507400600874087,0.764244798198417,0.778490778799164,0.7932465086169068,0.802741238274978,0.808571812086908,0.8131965044144338,0.8197205281213846,0.8261451924088026,0.8264545311933588,0.8185060582860749,0.8022132256952977,0.7787147080545825,0.7368259708076853,0.6969249605683648,0.6739642069971691,0.6820660671739374,0.714107243428881,0.7416596698358834,0.7704949546187998,0.8006091857097034,0.8209062761159033,0.828770603631245,0.8326184986153148,0.842021313351851,0.8568676329554434,0.8716714702171647,0.8813790439907763,0.8874538441805608,0.889655196218705,0.8903289184458946,0.8961190980703609,0.9087389916726348,0.9212434691667913,0.9300125887702264,0.933382858107897,0.9324734239347654,0.9327118986214556,0.9379978612016829,0.9439906116582407,0.9509926950586959,0.9601656773660615,0.9708793378517758,0.9782655514651606,0.9779079861011349,0.9769818194498548,0.9826137796404266,0.9923751306631861,0.9953855724082677,0.99598524314148,1.0045207876252136,1.0157416625359457,1.0228891000470544,1.0235727994140345,1.0208997640829012,1.022599296693388,1.035030106036653,1.0514620428304922,1.0651773451759885,1.071462370108869,1.0698453731782265,1.063353347121791,1.0573836499877556,1.063590348797382,1.082042008195681,1.101050673020108,1.1169454911958574,1.1257197862920287,1.1271022051094584,1.1258346977332632,1.1289597191823875,1.1345725649098133,1.1452549092218194,1.16032128425652,1.16778512536447,1.1648731374143095,1.1535920850683914,1.141755080625687,1.1412488358959363,1.1478169260853333,1.1535319785512421,1.1591114084140746,1.1665519353950724,1.1855243020921298,1.2086289722080332,1.2394179853832916,1.292029277980288,1.3649088909572111,0,0,0,0,0,0,0,0,0,0,0,0
0.7784847546822201,0.15591005920690731,0.0012113413524046763,0.24393545939178857,0.632911891039905,0.8704674009642908,0.9198105017889145,0.860591817044244,0.7846079276834284,0.7455136415106938,0.7516977093483853,0.7795799261511059,0.8111398712165574,0.8322969768521475,0.8431949184442425,0.8519886873928594,0.8595436293485067,0.8714296170604808,0.8894098847337274,0.9066810382598821,0.9311711311809776,0.9492872918286903,0.9571940255001515,0.9678148078865003,0.9656428452020713,0.9539866193079297,0.939987978401986,0.9238479945246321,0.9122144740992949,0.8999016423752002,0.8851881083629171,0.8642346974152677,0.8466278291004821,0.8332614706037318,0.8327247844099456,0.8555957968520429,0.8872492777033231,0.9270322075297822,0.9683035661856577,0.9978904138281324,1.0234727618915136,1.0433478511532681,1.0573427167115936,1.0692039955872807,1.0815001797225365,1.0916923579416808,1.0992278687336994,1.1046015001708125,1.1084655193855864,1.113570243105171,1.1212937431834917,1.131301058376791,1.1411212513312259,1.148709597346554,1.15362692376788,1.157357755284732,1.1641993686276686,1.1742205323051544,1.1850798961161206,1.1974164130037477,1.2115396840541326,1.2266701870975376,1.2411319363559767,1.2543675319677268,1.2681017558723704,1.2849636698436115,1.2953612410362063,1.298142870089338,1.298455807610074,1.2973361591406014,1.2970597124329566,1.2945499294322524,1.2934237990512978,1.2949938583369123,1.2981000012695627,1.3096422906994947,1.3313546227998398,1.3618471218631367,1.3914015042010404,1.4372080714150723,1.4966415621780624,1.547627354520898,0,0,0,0,0,0,0,0,0,0,0,0,0,0,0,0,0,0,0,0,0,0,0,0,0,0,0,0,0,0,0,0,0,0,0,0,0,0,0,0,0
0.7778461375610775,0.19091024142236648,0.002703938753568141,0.15177189444342476,0.44806169019919223,0.6947432626541775,0.8067520221675243,0.8114158703021459,0.7732429586866165,0.7432368653628648,0.7429687715664253,0.7624912917032622,0.7839557123235131,0.7993783452212009,0.8105532417389726,0.8215406842896662,0.8339815524797248,0.8469778278034271,0.858732904152228,0.8703246130134046,0.8830215484571335,0.9012122557412131,0.9194643526125541,0.9316437671987033,0.9400331858038813,0.9472490302296073,0.9566410002653214,0.9626636408527534,0.9607849730258575,0.9645946762188963,0.9772211059731236,0.9774348973176215,0.9595434401564015,0.9483900300336779,0.9624524867278282,0.9917492545225601,1.0122592981120726,1.0266424803560714,1.0446158549530151,1.0623845230393487,1.0758296299661243,1.078763399104139,1.0834633511902205,1.096152381764357,1.1107211192172302,1.124367114002296,1.1376035856829163,1.1481068690755636,1.1538876625196088,1.1570432467239404,1.1635682790733077,1.1758071364243856,1.1959776319335629,1.2267752422719647,1.2593627405447443,1.2865707082396745,1.308090771713988,1.3188618321175047,1.317415492328542,1.3012611805902314,1.2787645666657121,1.2635080066513336,1.23709987298917,1.2029063927011996,1.1904156844897167,1.2076331432774834,1.246075878580791,1.2884723109983889,1.3227688265554665,1.3943188948370733,1.5435188730793754,0,0,0,0,0,0,0,0,0,0,0,0,0,0,0,0,0,0,0,0,0,0,0,0,0,0,0,0,0,0,0,0,0,0,0,0,0,0,0,0,0,0,0,0,0,0,0,0,0,0,0,0
0.6522364244346803,0.12240635910799957,0.02193587251248022,0.3086927006320737,0.7071232614328143,0.9394576165926836,0.9615397309415001,0.8586085235448341,0.7448739689175702,0.6821469191610361,0.6783371784143583,0.7049192736047671,0.735330769081845,0.7555806416530302,0.764633727681384,0.767580185335453,0.7706505649424853,0.7766196916133081,0.7864849700856007,0.7986287125618545,0.8111169618143919,0.8251291212451282,0.8383941332697582,0.8513063393007048,0.8635844531082277,0.8723667179119623,0.8808100599131554,0.8795305272832096,0.8683443694616422,0.8529759714760097,0.830635199543998,0.8034682962429878,0.7754445866788846,0.7488328223951937,0.7270374601566107,0.7224745097697988,0.7360025845140719,0.7616652248002016,0.7929356554708884,0.8232383390482578,0.8500953509104097,0.8737850208565867,0.8930272073198304,0.9092863347938346,0.9230837522821499,0.9352319061857495,0.9460390292469848,0.9557089052786646,0.9641189649839571,0.9720095249836168,0.979634407818773,0.986600943705664,0.9928273848654424,0.9982142655649261,1.0019528285621089,1.0048424778286527,1.0079322454212862,1.011296115257045,1.015080974642616,1.019129128011096,1.0236804776153081,1.0295633985267902,1.0363959085266148,1.0429841317165809,1.050289922647984,1.0585314167814621,1.0668309690007516,1.0744130542362158,1.080788059738699,1.0870244644944522,1.0941282479869332,1.1015287735675963,1.1085027088438317,1.1147814996442946,1.1209296638565465,1.1273584295934902,1.1339625558421425,1.1406397269248836,1.147050269086523,1.1532190145740226,1.1599032942240275,1.1678668135581725,1.177151320438775,1.1867985769178815,1.1958209402741815,1.2044325380510479,1.2109683269322538,1.2162471778795343,1.2227256968364857,1.2271045935517946,1.2294746123592877,1.2317268482913513,1.236104624683858,1.237987346789745,1.2355442931494547,1.235849549321308,1.2407529582268355,1.248462054462751,1.255571391945729,1.2652201082565078,1.2752151769223556,1.2850936068140342,1.312504407662447,1.3793561411035082,1.4738560456423835,1.5603519088418785,0,0,0,0,0,0,0,0,0,0,0,0,0,0,0,0,0
0.786226590547724,0.1782798406055262,0.01847312823823011,0.24137062816089064,0.6238695956686899,0.877378649974233,0.9302994833633335,0.85464038355144,0.7420390646568044,0.6721995092609675,0.662985627763824,0.6864337390580293,0.7156960324475914,0.7361021590732221,0.7458397193582296,0.7495242391758672,0.7526396892458215,0.7590665667211578,0.7691521556126832,0.7792743053650656,0.7902583079679834,0.8013327455227444,0.8128788189914136,0.8276306988113972,0.8384999664359504,0.8466974460959957,0.8537753054708255,0.8541018899216862,0.8490941611464834,0.8376736925594723,0.8207585940048824,0.8014162009384386,0.7825628101348628,0.7579277318882712,0.738058199549029,0.7337829203043679,0.7411553662027109,0.7614842372607199,0.7854981442860388,0.8094630485219662,0.8366830629258936,0.8611518625357788,0.8806895531118609,0.8972369704417532,0.910659897190602,0.9226489480605817,0.9332302995054558,0.9423730788597993,0.9504474700330604,0.9582177939151858,0.965661179725585,0.9719764707954223,0.9778416250911747,0.9834998722933154,0.9883298628664119,0.9927180961705427,0.9960933747527304,0.9994687019654905,1.003631986314641,1.0081140319452158,1.012462702336393,1.0178919366517312,1.0250991385256945,1.0329106425511965,1.041072432957179,1.049133809742816,1.0567447677276336,1.0640397491048346,1.0708528352777102,1.0773379253564075,1.084088674631318,1.0914603151511277,1.0987820629750609,1.105604207320068,1.1119982370522867,1.1184649939333842,1.1254293320359716,1.1321581034309034,1.139887346177499,1.1495624378753122,1.1613798608100323,1.1727539474162902,1.1802242912258227,1.1845411759601665,1.1879743002950236,1.190183497599115,1.188579327169575,1.1887822253505953,1.1926689043124161,1.1981536007646276,1.204808769897793,1.2101902010994914,1.2163037582913832,1.2237944513292105,1.2319882545567415,1.2396960337138088,1.2490857017891974,1.259644483779853,1.267393553505073,1.3064639488575305,1.3966718857227536,1.5386993548066974,0,0,0,0,0,0,0,0,0,0,0,0,0,0,0,0,0,0,0,0,0
0.683443482866779,0.12246963671872105,0.01802609574948034,0.3009206682847244,0.6993161318548486,0.9373192451259633,0.9576495417311743,0.8585849091995273,0.7427157044727187,0.6814716168442406,0.6786710203813561,0.706750270442031,0.7354336431544217,0.7552898006109956,0.7644401452544185,0.7672938438067531,0.7697974357142578,0.7764680916166516,0.7863508024243848,0.7964003475872176,0.8087326442547349,0.8203584677483529,0.8323708980668076,0.8475864067764964,0.8587196984050832,0.8701536875376931,0.8754634534429592,0.8718078298165441,0.866917423374456,0.8548488118688511,0.8357955561856445,0.8152391885938888,0.7913025529388779,0.7638988531534043,0.7408247109027746,0.7297095196225067,0.7401433000247665,0.7663042834146394,0.791614344067441,0.8176321551591716,0.843674871532645,0.8663440893798375,0.8871497151319747,0.9048752562198097,0.9189127114047639,0.9314768873092534,0.9419498764419358,0.950916827137908,0.9590512666849683,0.9675193621922485,0.9750267724880317,0.9810357083697971,0.987303210742212,0.993355353039591,0.9991911742034979,1.004805466203598,1.008720787098995,1.0116823244755397,1.0145767859255659,1.0178973150231068,1.0216778636390083,1.0265730401830189,1.0325624660579416,1.0391677613989718,1.0463806638309814,1.0536326034410997,1.0608476354367409,1.0679695773289768,1.0757577397641795,1.0842279758348732,1.0916301155972779,1.0971139873487468,1.1025836767803463,1.1096377757132845,1.1164763360640673,1.1223643635780305,1.128783035012365,1.135927906748353,1.143148836080125,1.1497077217059928,1.1556300093591496,1.1612470313292165,1.1672949305147,1.1741710122846438,1.1830177478138757,1.1923484366064034,1.20194580022719,1.2104849911992654,1.2169012830103312,1.2194799906984284,1.218931206597514,1.2190500184624973,1.2237297296278324,1.230602088563853,1.2392668732306156,1.2486988086812452,1.2574389644531585,1.2640947536615146,1.2687063691901859,1.270667005080213,1.27118006627028,1.2726180353642391,1.2752828290086797,1.280040760968321,1.303627804146694,1.369840011533259,1.4592348738200305,1.5393286550925613,0,0,0,0,0,0,0,0,0,0,0,0,0,0,0
0.7394246804440184,0.14750700029086516,0.003899855275913667,0.2736104597204726,0.6768993942943976,0.8966164593654243,0.9140032334077606,0.8330690809584352,0.7532771115201881,0.7183982213621108,0.7282123619699551,0.7585880333148587,0.7874971714948579,0.8065679365372402,0.8188250144746778,0.8286284038378824,0.836903139279327,0.8424047910885645,0.8498038248248198,0.8615134406489463,0.8787501893311519,0.8950614010395697,0.9064790728465757,0.9176926175423554,0.923914338782301,0.9246784662357107,0.9207563122688569,0.9151040691283889,0.9124112782308621,0.9107040825587952,0.9106010221849618,0.906410921890387,0.8992782264401592,0.8932697837162633,0.8933163062903747,0.902436989277243,0.914357235786939,0.9325062823855094,0.9556794759409003,0.976660869264763,0.998602080522078,1.0197101250479121,1.0381602911242698,1.0516590090578573,1.0595445250940176,1.068726976850392,1.081494523195616,1.0925148892562868,1.1015700565498368,1.108889872318908,1.1142400844034808,1.1175775794866065,1.122265873991354,1.128657294992966,1.1339100364068269,1.1400651800139074,1.1486990914536974,1.1553212612518384,1.161713141029566,1.1707934713943278,1.175519682550808,1.1721228655747502,1.1760335690034913,1.1995744572087423,1.2302790593801287,1.2527499477490713,1.2695776490229795,1.2835522881204935,1.2945403421932185,1.3002738603958581,1.3042476448358293,1.3067696229043584,1.304229424648033,1.294051622325187,1.2905070959212848,1.2935024493272427,1.293807218326694,1.2927266658812517,1.2780862980824221,1.2654102784237342,1.277253616923213,1.3170391096691563,1.3794017123457691,1.4493736072634298,1.5251787676577986,0,0,0,0,0,0,0,0,0,0,0,0,0,0,0,0,0,0,0,0,0,0,0,0,0,0,0,0,0,0,0,0,0,0,0,0,0,0
0.6997223842154755,0.16441252668566195,0.011860134326441408,0.24364470023723103,0.6363011075725094,0.8718631280928868,0.9041167622449264,0.8360306873910448,0.7545540429117021,0.7132423082692974,0.7139434572937339,0.7404471938167665,0.774060499046205,0.8033892153429725,0.8161245769354534,0.8169852414924113,0.8206828727213961,0.8295469644503785,0.8417762163675111,0.8549587511734476,0.8701961934053899,0.8858460495228323,0.9022134095695132,0.9160635488318278,0.9218653905450848,0.9157853920293755,0.9066987103075091,0.9086286318536055,0.9104444454043519,0.9017475736122331,0.889519696255702,0.8776919726192437,0.8695819889785287,0.8672373737267414,0.8731225147688344,0.8895509147634831,0.9112753302120923,0.9355152933893023,0.9590130077764206,0.9776534145308412,0.99165658166801,1.0009800176989314,1.0093178321898144,1.0208197500263247,1.0389191835516673,1.057712320298239,1.0709017275626833,1.0770374700122862,1.0816765344717452,1.0856156999397792,1.0928630154925805,1.104317430054667,1.1111172154325943,1.115419969166913,1.120964682555227,1.1260343751726642,1.1309234572004778,1.1374166910617893,1.1460998512188363,1.1536842649391912,1.155922717018226,1.1687934889097584,1.1888558499457216,1.2037866644106177,1.2097161889193437,1.2178558776104735,1.2333383209967037,1.2598713963077182,1.2879615597951488,1.2981392029330818,1.2970814886634243,1.293270270965475,1.2739896140184799,1.2455882247268624,1.2215723057549832,1.213196653852619,1.2233945393191854,1.2433303433964258,1.2716212618304807,1.2976362119678582,1.318077292702357,1.3305165611107055,1.3426458499013694,1.3972616063202221,1.486674558956125,1.6001915033044924,0,0,0,0,0,0,0,0,0,0,0,0,0,0,0,0,0,0,0,0,0,0,0,0,0,0,0,0,0,0,0,0,0,0,0,0,0
0.7297670118258858,0.11131327051467223,0.01705862134562974,0.3137191384931752,0.6813109586219938,0.8865184150195873,0.8888613963673213,0.8003337059487536,0.7216695772859609,0.6984557453952992,0.7142509636604885,0.7472043361795604,0.7753859059858758,0.7927312293902895,0.8052300166614456,0.8140949580454898,0.8203920012011966,0.8319905088486346,0.8433275185413308,0.8537940820717099,0.8688743142063334,0.8835539925833972,0.8988160316178888,0.9061251196724255,0.9047648536073806,0.9042678865239885,0.9033723515549564,0.9027590837913401,0.8992236096684195,0.8950738796056216,0.8939097483844434,0.8979608988141035,0.9017426226939239,0.9002588302241137,0.9000488730528539,0.904435385038152,0.9202723619825137,0.9453621554098737,0.9659997066965629,0.9841791214304266,1.0037635414419503,1.021373803666727,1.0361761604909316,1.0486386020849225,1.0591762442605663,1.0641163938857054,1.0688017821381874,1.0770254073054126,1.0882758905688346,1.096906068648343,1.1012901255784329,1.1076351094177184,1.1160597322206596,1.1223071743674362,1.1230434038148742,1.1270466910854058,1.1408319349570735,1.1593288092969327,1.1784969160397958,1.1997919454496973,1.224694544679007,1.2436147629204821,1.259238836144465,1.2710898482382176,1.2711058602124932,1.2627756477321326,1.2482758607732225,1.2240238971166668,1.202889189555697,1.1921994722709006,1.191663069668825,1.2109932236711243,1.238768495740184,1.2597383447773904,1.2811615499086766,1.2992082937318254,1.3177080313531593,1.35023132037626,1.449949694125157,1.6411566440560608,0,0,0,0,0,0,0,0,0,0,0,0,0,0,0,0,0,0,0,0,0,0,0,0,0,0,0,0,0,0,0,0,0,0,0,0,0,0,0,0,0,0,0
0.6988344373118708,0.11364837545962314,0.004097847215060539,0.24864263128964031,0.576496522547807,0.7890309844670567,0.8396591760298646,0.8041085052676894,0.753898945994833,0.7334296223350366,0.7472673801168098,0.7721308840351634,0.7885010489099676,0.7997877269788815,0.8125773242012979,0.8262125527933508,0.8384017134790197,0.8509248998453512,0.8674210866222983,0.884229676896885,0.8977608484185089,0.9176578074274419,0.9353959813055985,0.9538492338486264,0.975532895071782,0.9853862092764528,0.9886478951690256,0.9777686566034444,0.9544853467806053,0.925778926794588,0.8818094411891434,0.829822546512006,0.7826960459532604,0.756707690882461,0.7709263944162049,0.8147314505075397,0.871454557095057,0.9288301836830787,0.9691375851724391,0.9942322050630146,1.009888042459005,1.022097709690311,1.0332985190444994,1.0503504462704167,1.0727615708237936,1.0901032906343964,1.0967003549785423,1.0932901635424728,1.0935289898204354,1.1056481303352566,1.1239924078969317,1.1388187071624154,1.141147266782024,1.1403297536755113,1.1464190962831875,1.1602421458311596,1.179619850308598,1.2005936689533205,1.2252947226140094,1.2401681547602952,1.2430215691192188,1.2405017456467857,1.2312643958781848,1.2213549361052034,1.217718441704005,1.2190906767469036,1.2186337643156553,1.2196489770210799,1.2334467908019153,1.2590930835039185,1.2845731968232346,1.304648356744929,1.3124725411039233,1.3203032073177368,1.3292932301183245,1.3440061885834886,1.3796699473911656,1.4566623599381086,1.5634133751121078,1.6857472983512933,0,0,0,0,0,0,0,0,0,0,0,0,0,0,0,0,0,0,0,0,0,0,0,0,0,0,0,0,0,0,0,0,0,0,0,0,0,0,0,0,0,0,0
0.6957450924574563,0.12774274713570058,0.0022057411817396943,0.2180107369655684,0.5382986087355615,0.7429588121594949,0.8037245309735205,0.7762321815518163,0.729210980008448,0.7043291806583387,0.7085728659503681,0.7301902029606808,0.7559129117108181,0.7757831640397038,0.7904877933085572,0.7996929796698665,0.8038655478677591,0.8127392258595133,0.8262632852206652,0.8419540083906176,0.862302463189798,0.8815456352025259,0.8984094192204087,0.9127403117319631,0.9191619943634228,0.922185369625298,0.918160262941263,0.9080548939949096,0.8949535392691964,0.8758403212225477,0.8528069435496781,0.8244970015500238,0.8088118737412028,0.8089258324982628,0.825200014986106,0.8594524040241625,0.8932999361950146,0.9252824405898707,0.9583399786644772,0.9884001963961803,1.0135482338605961,1.0326096647947434,1.0471718612396084,1.0593687999918675,1.0706633120506768,1.0774583610355501,1.0845348755643047,1.096614501994563,1.115046106184668,1.1420253098388544,1.1675461140335788,1.1887316230847658,1.1997951583096866,1.1865352973915413,1.151134096932279,1.1139131250836045,1.0915707794409402,1.089364344074482,1.101325106141324,1.1141863553294553,1.1241552027090256,1.1477649706895554,1.1865562644670533,1.2235473825290937,1.2475897544033419,1.261641645395017,1.2728612419455458,1.284596171508994,1.3093519914273313,1.3597556855480115,1.4920106161607807,1.7463992528175152,0,0,0,0,0,0,0,0,0,0,0,0,0,0,0,0,0,0,0,0,0,0,0,0,0,0,0,0,0,0,0,0,0,0,0,0,0,0,0,0,0,0,0,0,0,0,0,0,0,0,0
0.5822306083176436,0.12121291480699965,0.010022865621511397,0.19862374719780415,0.4880346479094845,0.6829364504853257,0.7371228684920234,0.7050800810532122,0.6609704074483832,0.63586940591436,0.6403285482107068,0.6618684203824909,0.685958656665689,0.7034880860341667,0.7142583936278035,0.7215294457092122,0.7316280820082698,0.74443859820328,0.757777331201232,0.7750443360931861,0.7910396994480243,0.8084788934275674,0.8262865845581266,0.8407729676205793,0.8459640473053686,0.835784807847547,0.8162099416064863,0.7930806491501967,0.7677227051399077,0.7415659417785317,0.7150623764773412,0.7043460333311955,0.7137447587874084,0.7379579868659946,0.7761207227595276,0.8130621048936433,0.8438373875563268,0.8670246894274404,0.8839156047282036,0.8972757397435702,0.9124228879148348,0.9293496898117637,0.9448957651248467,0.957258902703293,0.967483636904279,0.9765062681425457,0.9859135368268734,0.9920984691402387,0.9969264779758903,1.0048817326299142,1.0154269676575927,1.0318046410791293,1.0522064600201955,1.0736718528289453,1.0868836784372182,1.0822181222055423,1.0636039982797159,1.0368531011407627,1.014577450821345,1.0061344213038204,1.0090507850817716,1.018253603418616,1.0268057812097906,1.0417720624439506,1.0652074367833262,1.0898261276345997,1.1162607254325911,1.1381306842780963,1.1550980715774353,1.1688420498594068,1.179994924590823,1.2090363939735875,1.2934617112666444,1.4720433448833945,1.7518044390759535,0,0,0,0,0,0,0,0,0,0,0,0,0,0,0,0,0,0,0,0,0,0,0,0,0,0,0,0,0,0,0,0,0,0,0,0,0,0,0,0,0,0,0,0,0,0,0,0